# Rounds: 500, repetitions: 1000
# Good arm ~ N(5.0,0.0), 7 bad arm(s) ~ N(4.5,0.0)
# Observation noise range from 0.5 to 8.0 with step size 0.1

# Observation noise | mean | standard deviation

0.5 2479.2355000000025 2.259955120604653
0.6 2471.8365000000026 2.1385956469939105
0.7 2463.9879999999976 2.3969984567374003
0.7999999999999999 2455.9759999999997 2.4139700187142537
0.8999999999999999 2447.819500000002 2.4918625823125016
0.9999999999999999 2439.803999999995 2.972695901184811
1.0999999999999999 2431.7274999999977 3.0349966976843468
1.1999999999999997 2423.6895000000013 3.343578811583367
1.2999999999999996 2416.266499999995 3.7412865400787987
1.3999999999999995 2408.922999999999 3.917194840113996
1.4999999999999993 2402.276499999995 4.019944988144466
1.5999999999999992 2395.4045000000015 4.4084650746392615
1.699999999999999 2389.300499999999 4.546275219162197
1.799999999999999 2383.507000000002 4.6912641109789295
1.8999999999999988 2378.139500000001 4.8636863791979135
1.9999999999999987 2373.081999999998 5.001929157364712
2.0999999999999988 2368.338999999998 5.257491818369325
2.199999999999999 2363.5059999999967 5.327132656724663
2.299999999999999 2360.065500000003 5.337457090993615
2.399999999999999 2356.317499999998 5.643872522217957
2.499999999999999 2352.8209999999963 5.8841807061461875
2.599999999999999 2349.348000000005 5.8145683593199795
2.6999999999999993 2346.3069999999952 5.8085704343229505
2.7999999999999994 2343.4585000000006 6.105350362841826
2.8999999999999995 2341.2069999999985 6.147555891851877
2.9999999999999996 2338.7139999999954 5.869894348253605
3.0999999999999996 2336.555499999998 6.147638832365905
3.1999999999999997 2334.601 6.1819103046724
3.3 2332.927000000001 6.3783896756826355
3.4 2330.7625 6.373065173816272
3.5 2328.5865000000026 6.363431543672867
3.6 2327.690999999998 6.673121424756925
3.7 2325.682499999996 6.387350154171276
3.8000000000000003 2324.806499999997 6.753622670031947
3.9000000000000004 2323.4545000000026 6.670845518367985
4.0 2321.554999999996 6.729543949017787
4.1 2320.6020000000035 6.6615668181346575
4.199999999999999 2319.677500000001 6.794807809140993
4.299999999999999 2318.2865000000083 6.802642405249143
4.399999999999999 2317.057499999996 6.640974800155195
4.499999999999998 2316.313000000002 6.872755325614774
4.599999999999998 2315.5574999999963 6.910441226719729
4.6999999999999975 2314.6794999999984 6.962902538579923
4.799999999999997 2314.042999999997 7.123264131835343
4.899999999999997 2313.130000000003 7.064276608684318
4.9999999999999964 2311.970000000005 7.056656176716886
5.099999999999996 2311.2060000000015 7.16829466808168
5.199999999999996 2310.719000000001 6.995353741875699
5.299999999999995 2309.576499999999 7.261516878543844
5.399999999999995 2308.9654999999975 7.401137519772682
5.499999999999995 2307.968999999996 7.3530678363936515
5.599999999999994 2308.0914999999986 7.277007117117762
5.699999999999994 2307.2350000000033 7.537146912697372
5.799999999999994 2306.476499999999 7.2701480592078065
5.899999999999993 2306.0429999999997 7.42581940218003
5.999999999999993 2305.6695 7.043410351483071
6.0999999999999925 2304.810000000003 7.308749401766187
6.199999999999992 2304.2479999999928 7.60709299692489
6.299999999999992 2303.6980000000053 7.4826657206029505
6.3999999999999915 2303.4414999999995 7.235273106588786
6.499999999999991 2302.6775000000016 7.584607440073595
6.599999999999991 2302.2355000000025 6.989717154212675
6.69999999999999 2302.099499999999 7.314051209493629
6.79999999999999 2301.4919999999915 7.155147247410917
6.89999999999999 2300.8534999999983 7.4869782016907465
6.999999999999989 2300.6854999999987 6.7512160881332255
7.099999999999989 2299.9840000000004 7.469306161520946
7.199999999999989 2299.6010000000015 7.3072015296003965
7.299999999999988 2299.069999999998 7.436760410649586
7.399999999999988 2299.048999999997 7.204026443385451
7.499999999999988 2298.2795000000024 7.2986574210706765
7.599999999999987 2297.8590000000004 6.92185170536256
7.699999999999987 2298.0909999999994 7.263227483252436
7.7999999999999865 2298.0169999999976 7.069419190265045
7.899999999999986 2297.0864999999985 7.18198082694451
7.999999999999986 2296.492000000001 7.278455324580356
