# Rounds: 500, repetitions: 1000
# Good arm ~ N(5.0,0.0), 7 bad arm(s) ~ N(3.0,0.0)
# Observation noise range from 0.5 to 8.0 with step size 0.1

# Observation noise | mean | standard deviation

0.5 2486.6699999999996 6.629256900064077
0.6 2485.5839999999994 6.954948980065546
0.7 2483.1499999999996 5.481929546387021
0.7999999999999999 2478.8639999999955 4.991835576461061
0.8999999999999999 2474.620000000004 5.044705050748659
0.9999999999999999 2471.0479999999984 5.383928183276862
1.0999999999999999 2466.6079999999974 5.26060928125342
1.1999999999999997 2462.0839999999985 5.024160246865763
1.2999999999999996 2457.126000000001 4.878106181697969
1.3999999999999995 2452.1340000000014 5.100594088933162
1.4999999999999993 2446.9999999999973 5.035211351408534
1.5999999999999992 2441.7859999999996 5.2220181418177125
1.699999999999999 2436.454 5.3132018702580694
1.799999999999999 2430.202000000004 6.130969318532336
1.8999999999999988 2424.6800000000026 6.329111916979966
1.9999999999999987 2418.985999999999 6.229173830180632
2.0999999999999988 2412.6 6.632947760686522
2.199999999999999 2406.372000000005 6.854823455392901
2.299999999999999 2400.364 6.969941469200732
2.399999999999999 2393.896 7.4288876941553115
2.499999999999999 2387.599999999999 7.6237865999857855
2.599999999999999 2381.2920000000045 7.970085210225664
2.6999999999999993 2374.7359999999962 8.21984609769972
2.7999999999999994 2367.2519999999977 8.91245914032307
2.8999999999999995 2361.4059999999995 8.83975708406656
2.9999999999999996 2355.047999999997 9.183138136063656
3.0999999999999996 2347.7279999999996 10.028888003891298
3.1999999999999997 2340.5199999999977 9.652293342349624
3.3 2334.038 10.601837338638743
3.4 2327.1719999999987 11.567550485051937
3.5 2319.457999999997 11.73319666177566
3.6 2312.292 11.920437610794
3.7 2306.103999999997 11.509024356636068
3.8000000000000003 2298.2079999999987 12.671120443484543
3.9000000000000004 2292.076 13.41902732295809
4.0 2283.915999999998 13.191776490183834
4.1 2277.134000000002 13.730497826756695
4.199999999999999 2268.968000000001 14.279877131505415
4.299999999999999 2261.9879999999976 15.005099433492804
4.399999999999999 2255.4479999999985 14.639043602558104
4.499999999999998 2247.348000000001 15.0902157244557
4.599999999999998 2240.3179999999993 15.731826542597284
4.6999999999999975 2233.236000000002 16.79912243286875
4.799999999999997 2225.647999999999 16.98318358036926
4.899999999999997 2218.4640000000027 17.784853246653594
4.9999999999999964 2211.6940000000013 17.447830546827024
5.099999999999996 2205.0619999999985 17.79856581146203
5.199999999999996 2196.8380000000006 18.660706792026325
5.299999999999995 2189.1319999999996 19.299612717644152
5.399999999999995 2181.113999999996 19.111364374325806
5.499999999999995 2175.3940000000034 19.71835636095407
5.599999999999994 2167.1059999999998 21.2045843722152
5.699999999999994 2159.9400000000005 21.574008385968405
5.799999999999994 2153.0320000000033 21.065106567846133
5.899999999999993 2145.724000000003 21.907162019480015
5.999999999999993 2138.791999999998 22.39791067047108
6.0999999999999925 2131.0280000000025 23.246582966526944
6.199999999999992 2123.302000000002 23.577886095083088
6.299999999999992 2118.2959999999957 23.026128345568353
6.3999999999999915 2110.0619999999967 23.945302953471543
6.499999999999991 2103.5379999999986 24.378779314823788
6.599999999999991 2095.762 24.397758229120285
6.69999999999999 2088.792 24.66294785699792
6.79999999999999 2084.1480000000015 25.359597891236483
6.89999999999999 2074.774000000001 25.936723725976588
6.999999999999989 2068.5720000000033 26.37894358507682
7.099999999999989 2060.486 26.843031728036124
7.199999999999989 2055.670000000002 26.697337841961748
7.299999999999988 2048.9740000000047 27.663416068674344
7.399999999999988 2041.5739999999996 28.768283545219354
7.499999999999988 2036.066000000001 28.200406147906932
7.599999999999987 2029.7699999999986 28.02678362924653
7.699999999999987 2022.3660000000004 28.99715294436471
7.7999999999999865 2014.5019999999984 29.619475169376468
7.899999999999986 2008.0120000000006 29.558646274306426
7.999999999999986 2003.24 29.39398588838209
