# Rounds: 100, repetitions: 1000
# Good arm ~ N(5.0,0.0), 13 bad arm(s) ~ N(1.0,0.0)
# Observation noise range from 0.5 to 8.0 with step size 0.1

# Observation noise | mean | standard deviation

0.5 452.29600000000016 2.4896952790618267
0.6 452.2800000000001 2.542452372034551
0.7 451.9120000000001 3.4193490532480033
0.7999999999999999 451.772 3.476795090899662
0.8999999999999999 451.3520000000001 4.708531221757664
0.9999999999999999 451.17600000000016 4.438549844794478
1.0999999999999999 450.25999999999993 4.9303862636419
1.1999999999999997 448.3479999999995 7.261654606742696
1.2999999999999996 446.62399999999997 7.632357229380524
1.3999999999999995 443.8360000000002 8.707751083312393
1.4999999999999993 440.1520000000001 9.17065957262605
1.5999999999999992 435.07999999999976 9.47857813405806
1.699999999999999 430.3760000000001 11.323375947253696
1.799999999999999 425.6279999999994 11.241529610688573
1.8999999999999988 419.27999999999946 10.944650994224803
1.9999999999999987 413.5319999999998 11.960101170977604
2.0999999999999988 408.1840000000002 12.055516557969703
2.199999999999999 403.20400000000046 12.50226742197954
2.299999999999999 396.01199999999994 12.743714460794276
2.399999999999999 390.6359999999999 13.180942350273817
2.499999999999999 384.98400000000026 13.545450277610657
2.599999999999999 377.54800000000023 14.76854108589621
2.6999999999999993 371.76399999999956 14.953525066415375
2.7999999999999994 364.996 16.93891705248334
2.8999999999999995 359.9680000000001 16.441085283073182
2.9999999999999996 352.74000000000035 16.654662343553465
3.0999999999999996 346.82400000000007 18.381373694555517
3.1999999999999997 341.7199999999997 18.030160473126337
3.3 334.2879999999996 17.837579298639035
3.4 327.144 19.428760658897886
3.5 319.6880000000001 20.193425425876356
3.6 313.624 20.781783044448012
3.7 308.84000000000026 21.666468005557263
3.8000000000000003 300.9640000000002 21.639292108637992
3.9000000000000004 295.8280000000001 22.312064992829438
4.0 288.6960000000002 22.62678844987852
4.1 282.79999999999984 23.282398288622908
4.199999999999999 276.97600000000057 23.6781772964069
4.299999999999999 272.42800000000034 24.27356632268984
4.399999999999999 263.9960000000004 24.40367848344844
4.499999999999998 259.65199999999965 25.370111125861033
4.599999999999998 254.97200000000004 24.82336430493287
4.6999999999999975 247.83200000000008 25.417825277585077
4.799999999999997 242.89600000000007 26.150354204580587
4.899999999999997 238.27200000000008 25.040148262840326
4.9999999999999964 234.15999999999974 24.16887532622347
5.099999999999996 230.41200000000006 25.019517026358287
5.199999999999996 223.24399999999997 25.872956419278268
5.299999999999995 220.34799999999964 25.967541454847233
5.399999999999995 216.34400000000016 26.327909579433452
5.499999999999995 214.604 25.543367977767712
5.599999999999994 208.07999999999964 25.596264742512112
5.699999999999994 204.46400000000017 25.422647679087525
5.799999999999994 202.2120000000001 24.041069631549842
5.899999999999993 197.27599999999995 24.253000474828486
5.999999999999993 196.02399999999992 24.507959198269962
6.0999999999999925 191.71599999999978 24.099214014488474
6.199999999999992 190.59599999999998 23.93645207080065
6.299999999999992 187.11200000000025 23.3448160506018
6.3999999999999915 184.61600000000027 23.16975143115224
6.499999999999991 182.684 22.293612294761687
6.599999999999991 180.72800000000004 23.218292467472814
6.69999999999999 176.54400000000004 22.1889254451948
6.79999999999999 175.19999999999985 21.19984512758134
6.89999999999999 173.2120000000001 21.50538391978943
6.999999999999989 172.52800000000008 21.53957216773744
7.099999999999989 170.99600000000007 21.39181136775455
7.199999999999989 169.072 21.412643865653827
7.299999999999988 168.588 21.097947278808423
7.399999999999988 165.91999999999985 19.33472087803263
7.499999999999988 164.40000000000015 20.256414350084825
7.599999999999987 162.21199999999985 19.016537137046935
7.699999999999987 163.29199999999972 19.186528056395677
7.7999999999999865 161.24400000000006 19.075438037862646
7.899999999999986 159.83200000000016 19.0449596084236
7.999999999999986 158.9239999999999 18.602049894037478
