# Rounds: 100, repetitions: 1000
# Good arm ~ N(5.0,2.0), 13 bad arm(s) ~ N(2.0,2.0)
# Observation noise range from 0.5 to 8.0 with step size 0.1

# Observation noise | mean | standard deviation

0.5 432.5481014151554 55.92393754456094
0.6 430.9134022468402 57.08496072611451
0.7 432.1241849746811 50.81669651420767
0.7999999999999999 431.8142494535994 48.49857645840452
0.8999999999999999 430.3080187425821 46.1293124591466
0.9999999999999999 426.3414172698911 44.40249640217444
1.0999999999999999 422.60651026912103 50.07883551054409
1.1999999999999997 421.29623911562885 44.72836529661951
1.2999999999999996 418.8250334585247 43.289312366089725
1.3999999999999995 415.1566333432002 45.55361974357384
1.4999999999999993 413.4939906968835 42.42201034578439
1.5999999999999992 409.89647506464996 39.82049488057611
1.699999999999999 406.7224255209268 42.79207404922742
1.799999999999999 400.2104358845852 41.90284231459561
1.8999999999999988 395.7534805242276 41.48060423625031
1.9999999999999987 391.98031672782713 42.20451971553525
2.0999999999999988 385.5944036046212 43.17293191808763
2.199999999999999 381.63485374775024 41.87488710868898
2.299999999999999 376.45130866322637 45.09381387529737
2.399999999999999 370.4589054469291 45.46162577338699
2.499999999999999 367.14677017238495 44.49574983590857
2.599999999999999 360.9819577442924 44.77422871425234
2.6999999999999993 357.33220052641923 42.83978843309282
2.7999999999999994 351.36773561460393 43.3521669200591
2.8999999999999995 346.72325687914247 42.57248972243573
2.9999999999999996 341.8613612374202 43.975608475940646
3.0999999999999996 335.65022927884866 45.09464021604093
3.1999999999999997 331.67764838599584 43.4708436178171
3.3 330.0522793166333 45.19977928920251
3.4 326.64484865424225 44.05955294241259
3.5 320.6057003265861 45.089252490254594
3.6 314.529725313297 43.04808736543491
3.7 311.9157243379108 44.00275109877491
3.8000000000000003 308.42287586420855 43.90894641506667
3.9000000000000004 302.70180762525973 42.42439576804011
4.0 300.6353344530447 42.91850421760393
4.1 299.3214412622287 42.30673772986075
4.199999999999999 295.280355263392 40.62605265907383
4.299999999999999 291.40944901262316 40.41325149909564
4.399999999999999 287.94991221909527 40.17044455796475
4.499999999999998 283.0163060753801 38.060732940190505
4.599999999999998 282.4976806383637 37.495386761205474
4.6999999999999975 280.10227920180114 38.17818676901459
4.799999999999997 278.11382821136556 36.67777946587616
4.899999999999997 274.28979983457896 37.46598695318099
4.9999999999999964 271.8999469660492 36.002175587048896
5.099999999999996 267.5408414826431 35.17937848461699
5.199999999999996 268.7941500493736 35.22605370752392
5.299999999999995 265.9775730584909 35.46492458619574
5.399999999999995 263.9192953836724 34.09992471620646
5.499999999999995 261.83091443744917 33.867777589094445
5.599999999999994 262.0644079055057 32.78182628085564
5.699999999999994 257.1403675977651 32.389625342371055
5.799999999999994 258.06175349700607 32.34604242476022
5.899999999999993 253.84638489295884 30.428473830101893
5.999999999999993 254.44805129534632 30.510996002995064
6.0999999999999925 252.67394170123893 29.856589130465082
6.199999999999992 250.9425783215254 28.580757924236377
6.299999999999992 249.10054865414583 29.516916324835524
6.3999999999999915 251.80102266813347 29.771833249808246
6.499999999999991 251.03441562126758 28.746378113904324
6.599999999999991 247.64597953045995 28.372464259180997
6.69999999999999 246.1734972087253 27.835778244406498
6.79999999999999 246.18770941789217 27.219409096624524
6.89999999999999 245.0732392109068 27.30533540751539
6.999999999999989 244.77855237319085 27.226055811888198
7.099999999999989 244.22513135442836 26.787315112231177
7.199999999999989 243.5533861675968 27.658608596461637
7.299999999999988 241.01096031614674 27.37219657741981
7.399999999999988 241.51398659328504 26.830695416476
7.499999999999988 241.30498307688507 24.788762833846004
7.599999999999987 240.48947503609176 25.07919082927746
7.699999999999987 239.26611071211045 24.60497744812392
7.7999999999999865 238.88285338153852 25.898312527368006
7.899999999999986 239.04025486817264 25.690350656638053
7.999999999999986 237.90029208532422 25.64925149351092
