# Rounds: 10000, repetitions: 1000
# Good arm ~ N(5.0,2.0), 19 bad arm(s) ~ N(3.0,2.0)
# Observation noise range from 0.1 to 10.0 with step size 0.1

# Observation noise | mean | standard deviation

0.1 47050.826403717525 6920.949316325884
0.2 47539.462506622855 6302.155954992248
0.30000000000000004 48111.95291228196 5516.888736044587
0.4000000000000001 48775.65703249045 4301.061477048097
0.5000000000000001 48900.57259040038 4060.282847003165
0.6000000000000001 49197.15773021634 3414.15542188128
0.7000000000000001 49382.90171722235 2840.8561081626867
0.8 49604.14200477453 1939.0888448474122
0.9 49676.913011370736 1403.178995652671
1.0 49732.12761331148 959.5473984486163
1.1 49719.86320050955 1145.8568883361247
1.2000000000000002 49760.67100877676 452.5057799747059
1.3000000000000003 49747.61771919323 427.8937766814669
1.4000000000000004 49723.205704825035 307.7209782057876
1.5000000000000004 49713.77717462472 222.35582388403662
1.6000000000000005 49690.692236419294 231.71261418578567
1.7000000000000006 49660.647960573355 210.97173691596572
1.8000000000000007 49640.179594682326 222.49009575081922
1.9000000000000008 49603.804885233134 218.10117569215967
2.000000000000001 49575.009598264034 214.13110404035274
2.100000000000001 49534.93696128756 215.34059186772936
2.200000000000001 49493.816730480656 212.03882382703384
2.300000000000001 49478.12684480964 206.78743773999125
2.4000000000000012 49436.34169388937 212.45704689561018
2.5000000000000013 49397.00236831354 208.68776463855912
2.6000000000000014 49354.69803185784 217.57317819312743
2.7000000000000015 49323.651674883244 216.2347199516154
2.8000000000000016 49267.231060441234 213.6717311923958
2.9000000000000017 49232.546524287354 214.81611822566217
3.0000000000000018 49201.53412052246 213.8366844605303
3.100000000000002 49149.169747013715 216.74376001401322
3.200000000000002 49107.777254864064 218.23229705041126
3.300000000000002 49058.74647757058 219.21046584019362
3.400000000000002 49014.41670008487 222.54471732546634
3.500000000000002 48979.45705407318 218.78139895683177
3.6000000000000023 48935.14192289634 214.72323311167114
3.7000000000000024 48869.304998703105 221.76605867888594
3.8000000000000025 48821.77647063591 222.60559690602838
3.9000000000000026 48787.60780083234 224.02638081761899
4.000000000000003 48730.708563607324 226.83639836221872
4.100000000000003 48671.81375231555 234.52435516631397
4.200000000000004 48642.57437392349 237.22804425847193
4.300000000000004 48580.10412693491 229.2790752501547
4.400000000000005 48529.948369179794 225.35128690200617
4.500000000000005 48481.801948393404 231.1592549226772
4.600000000000006 48425.11711609398 231.8619714081731
4.700000000000006 48355.336685086724 230.27767187053797
4.800000000000007 48316.5119264524 231.62905520134984
4.9000000000000075 48276.24811611088 226.9309344174635
5.000000000000008 48215.72123493969 240.99848200800267
5.1000000000000085 48150.02811597298 236.64368054233216
5.200000000000009 48079.1278773112 241.26905866991177
5.30000000000001 48037.69110940412 245.220560991773
5.40000000000001 47989.350923230166 240.04122104509656
5.500000000000011 47918.80989151098 248.5507270095147
5.600000000000011 47867.24390755204 242.8167055586505
5.700000000000012 47832.68842985597 254.93868850598614
5.800000000000012 47773.857936899745 237.85186550702295
5.900000000000013 47690.65753437362 245.52734696399372
6.000000000000013 47634.00403441191 248.73514131088322
6.100000000000014 47582.29076672033 230.920655238593
6.200000000000014 47516.17600031685 263.0758146359673
6.300000000000015 47481.867760933936 254.42309717105525
6.4000000000000155 47395.33857467432 260.46127263046435
6.500000000000016 47334.34521607076 257.33531688410744
6.6000000000000165 47266.80910513182 255.40093784547378
6.700000000000017 47214.18187471982 264.0283267774311
6.800000000000018 47139.507760908185 260.9294865158392
6.900000000000018 47097.510934562735 257.6437141481948
7.000000000000019 47022.91208406879 264.45757975138946
7.100000000000019 46973.63944526715 268.4703818455504
7.20000000000002 46901.73949938709 265.8942665420013
7.30000000000002 46841.57680620199 269.9200209966961
7.400000000000021 46781.819895092514 263.00730393715656
7.500000000000021 46728.17679013826 264.5521287680593
7.600000000000022 46648.897751339966 273.16658998816666
7.700000000000022 46585.52146888698 277.44762870321426
7.800000000000023 46531.055795557564 272.7958420016228
7.9000000000000234 46472.64887267394 271.1553241585294
8.000000000000025 46382.30233294608 285.64562540285795
8.100000000000026 46352.78264354745 276.2747072462859
8.200000000000028 46276.99047219104 282.7282941165482
8.30000000000003 46213.555947616085 283.66127368022813
8.40000000000003 46149.433892721536 279.50030127855325
8.500000000000032 46087.39876968804 296.69770851339166
8.600000000000033 46028.65269229103 285.2284424724972
8.700000000000035 45931.966286591065 288.91441614734475
8.800000000000036 45883.27403612091 288.24433406514976
8.900000000000038 45839.43574419575 291.07915148633754
9.000000000000039 45770.05232529261 298.5121484107853
9.10000000000004 45686.19877412217 285.455899258045
9.200000000000042 45612.05502884499 300.931647564329
9.300000000000043 45551.76306021138 296.5978325494579
9.400000000000045 45488.11557831259 299.6045566509758
9.500000000000046 45435.93018957839 311.214621475289
9.600000000000048 45358.93212348894 296.56273063306315
9.700000000000049 45281.010471628084 306.3831471587316
9.80000000000005 45232.28735616832 299.3275473040602
9.900000000000052 45176.12501942733 304.86605326542224
10.000000000000053 45102.63170871244 307.1302270325556
