# Rounds: 10000, repetitions: 1000
# Good arm ~ N(5.0,1.0), 19 bad arm(s) ~ N(0.0,1.0)
# Observation noise range from 0.5 to 8.0 with step size 0.1

# Observation noise | mean | standard deviation

0.5 49911.63614074421 99.04612141029392
0.6 49907.974914941435 96.571927247866
0.7 49906.49385286113 101.15482333994383
0.7999999999999999 49913.09077911183 99.05504589213592
0.8999999999999999 49905.03101926386 97.86360918678214
0.9999999999999999 49898.52322714567 97.56115975757734
1.0999999999999999 49899.03006045875 98.47256395517203
1.1999999999999997 49883.878486346126 102.89808363518391
1.2999999999999996 49872.132040220036 98.35265830777266
1.3999999999999995 49856.48544689153 101.47951046262405
1.4999999999999993 49842.77284086082 98.76144300017661
1.5999999999999992 49814.939474164334 99.45220749517107
1.699999999999999 49804.2025787015 102.23871518482765
1.799999999999999 49786.8431404787 102.05240580542942
1.8999999999999988 49768.83641074632 101.50986412021062
1.9999999999999987 49757.1471982873 100.79702967180494
2.0999999999999988 49736.05897255273 100.17743701067388
2.199999999999999 49709.90554172984 100.42748998059275
2.299999999999999 49688.15825357331 104.72081790122843
2.399999999999999 49669.64165117062 102.58075613053157
2.499999999999999 49651.38648509039 103.88441273956495
2.599999999999999 49628.548473820665 101.4140603007324
2.6999999999999993 49603.088051978404 104.83567810708904
2.7999999999999994 49580.457778604185 103.97223244833665
2.8999999999999995 49556.43869539745 101.84517209746447
2.9999999999999996 49527.89477523252 105.69291728237275
3.0999999999999996 49513.998192407504 102.52977119959633
3.1999999999999997 49475.26820663582 100.36869130116239
3.3 49451.5767572539 99.21552852383097
3.4 49423.81967408157 102.46541967484545
3.5 49394.02850101595 102.71327739689143
3.6 49366.60835589386 104.43987594524918
3.7 49340.38561430921 103.67190514060076
3.8000000000000003 49309.88674044737 101.8049102729006
3.9000000000000004 49274.9957592878 107.8099951651444
4.0 49258.327853166214 103.80462473510913
4.1 49212.188327873686 106.09337033884283
4.199999999999999 49181.01481137521 105.56510887707535
4.299999999999999 49152.77418055053 106.86209004564644
4.399999999999999 49124.904570887535 101.34761476501896
4.499999999999998 49089.69551059702 102.32705147388876
4.599999999999998 49053.063989693204 107.46789649853682
4.6999999999999975 49022.81740577265 109.11265706478449
4.799999999999997 48978.068911177026 110.81365487632577
4.899999999999997 48953.30348899952 106.85027193968241
4.9999999999999964 48904.79548021372 106.36508912306434
5.099999999999996 48869.58765875607 105.56403292951732
5.199999999999996 48842.01609484415 106.1013713307515
5.299999999999995 48801.03050672537 107.55142618249049
5.399999999999995 48762.83467542151 111.98606803086287
5.499999999999995 48727.87964865594 116.12012744860098
5.599999999999994 48692.41436650653 108.28325217318216
5.699999999999994 48656.89754242481 107.04497008243413
5.799999999999994 48616.0399127213 108.01032702172381
5.899999999999993 48577.556519243415 107.82216265519384
5.999999999999993 48531.51181905781 111.07342970674073
6.0999999999999925 48498.44725545982 109.41817071441682
6.199999999999992 48455.67293511496 108.04945400545269
6.299999999999992 48415.80039210124 109.71225576762963
6.3999999999999915 48367.94055095891 110.55329939993628
6.499999999999991 48329.71398693058 112.41000217498481
6.599999999999991 48285.969162052046 112.09445548759604
6.69999999999999 48240.4698083743 110.83269398861974
6.79999999999999 48202.29774368607 112.78589582406431
6.89999999999999 48167.31921752826 112.6318696048076
6.999999999999989 48110.58652690486 108.46309823818558
7.099999999999989 48067.02789176343 110.17932858558744
7.199999999999989 48019.88890521416 112.75761395168041
7.299999999999988 47981.39596977141 109.63548796642597
7.399999999999988 47937.30610920862 113.1301929561615
7.499999999999988 47890.053244286006 109.01579262741124
7.599999999999987 47838.442474454525 119.22490746996881
7.699999999999987 47800.05634478529 112.0339614998186
7.7999999999999865 47747.969485351015 114.23974775564474
7.899999999999986 47702.079700252696 114.93764189478425
7.999999999999986 47651.06467424063 113.21194323152741
