# Rounds: 5000, repetitions: 1000
# Good arm ~ N(5.0,0.0), 10 bad arm(s) ~ N(3.0,0.0)
# Observation noise range from 0.5 to 8.0 with step size 0.1

# Observation noise | mean | standard deviation

0.5 24980.412000000008 6.004190728674954
0.6 24971.547999999984 5.821820126866598
0.7 24963.381999999994 4.054937548041677
0.7999999999999999 24957.88399999997 4.341127663336988
0.8999999999999999 24947.979999999996 3.9394313192540147
0.9999999999999999 24938.59199999999 3.4544854131215503
1.0999999999999999 24928.018 4.011953610371381
1.1999999999999997 24917.083999999995 4.131102759555817
1.2999999999999996 24905.290000000015 4.213508473191157
1.3999999999999995 24893.018000000022 4.507770623711442
1.4999999999999993 24880.171999999977 4.873825004056928
1.5999999999999992 24866.532000000014 5.224583454427006
1.699999999999999 24852.70399999999 5.438930590287542
1.799999999999999 24838.63399999998 5.680696639877439
1.8999999999999988 24823.179999999997 5.95743997796801
1.9999999999999987 24807.418000000005 6.28942229722513
2.0999999999999988 24791.346000000012 6.474426785608287
2.199999999999999 24775.815999999988 7.006799500430893
2.299999999999999 24759.369999999988 7.518751999609444
2.399999999999999 24742.279999999973 7.525572020400415
2.499999999999999 24724.61200000001 7.71420540075035
2.599999999999999 24707.242 7.813737293414101
2.6999999999999993 24688.399999999972 8.778442974756913
2.7999999999999994 24670.658000000025 8.783859754811312
2.8999999999999995 24651.11400000002 8.873654587921829
2.9999999999999996 24632.15400000002 9.675013689390218
3.0999999999999996 24612.273999999987 9.170442793072771
3.1999999999999997 24592.976000000002 9.837896533721494
3.3 24572.770000000015 9.98452756973468
3.4 24552.626000000004 10.549664422123595
3.5 24532.057999999975 10.841871710280692
3.6 24510.287999999986 11.338324991532703
3.7 24489.75600000001 11.285913159148329
3.8000000000000003 24467.428000000025 12.115593406994323
3.9000000000000004 24446.19199999997 12.353936852508005
4.0 24424.945999999996 12.276473263759172
4.1 24402.446000000004 12.738420284766647
4.199999999999999 24379.985999999986 12.371938767584815
4.299999999999999 24357.454 13.199549693535529
4.399999999999999 24334.264000000014 13.922792397653186
4.499999999999998 24312.122000000003 13.54431853452092
4.599999999999998 24288.359999999997 14.445451570341119
4.6999999999999975 24265.86200000001 13.977421948425325
4.799999999999997 24240.314 14.52089047752437
4.899999999999997 24217.086000000014 15.96707711359702
4.9999999999999964 24193.29400000003 15.26481505222303
5.099999999999996 24170.310000000038 15.849893347247418
5.199999999999996 24144.696000000007 16.650069333453473
5.299999999999995 24120.63200000002 16.452089449284113
5.399999999999995 24096.137999999995 17.17707798224156
5.499999999999995 24070.010000000024 17.473901603169118
5.599999999999994 24046.19599999999 17.879632693801625
5.699999999999994 24020.474000000002 18.679085422799236
5.799999999999994 23995.920000000002 17.997708674092873
5.899999999999993 23970.04800000001 18.839336947372093
5.999999999999993 23944.069999999996 18.715591718494295
6.0999999999999925 23918.970000000045 19.22989570665638
6.199999999999992 23892.432000000015 19.576020959239763
6.299999999999992 23866.167999999987 19.803129549137925
6.3999999999999915 23840.990000000034 19.699135919018385
6.499999999999991 23814.862 20.33672880623959
6.599999999999991 23788.344000000012 21.59805871230433
6.69999999999999 23760.603999999985 20.792390615499386
6.79999999999999 23733.663999999993 22.863635971775132
6.89999999999999 23707.863999999987 22.50386473315036
6.999999999999989 23682.511999999984 21.85569782751226
7.099999999999989 23653.45000000002 22.311147153100222
7.199999999999989 23625.636000000024 23.902779061164466
7.299999999999988 23598.704000000012 24.25342476048708
7.399999999999988 23571.776 22.82504779418459
7.499999999999988 23544.56800000002 25.260155412258506
7.599999999999987 23517.414 24.527907008593704
7.699999999999987 23490.872000000036 26.418053098771928
7.7999999999999865 23461.662000000033 25.661181817138665
7.899999999999986 23436.41200000001 25.428583697659263
7.999999999999986 23406.449999999964 26.517554198694157
