# Rounds: 5000, repetitions: 1000
# Good arm ~ N(5.0,0.0), 10 bad arm(s) ~ N(0.5,0.0)
# Observation noise range from 0.5 to 8.0 with step size 0.1

# Observation noise | mean | standard deviation

0.5 24959.39249999999 2.4361092706154337
0.6 24959.275499999985 2.667670559911055
0.7 24959.23949999999 2.747624280935995
0.7999999999999999 24958.951500000036 3.676195337867923
0.8999999999999999 24958.74449999997 3.7538061765108486
0.9999999999999999 24958.397999999994 3.886734195015465
1.0999999999999999 24955.963499999983 5.399682798491466
1.1999999999999997 24950.22600000001 7.340763639486715
1.2999999999999996 24939.560999999958 7.5849726967742
1.3999999999999995 24925.687499999996 6.3868133787621595
1.4999999999999993 24917.25449999998 4.415878138007187
1.5999999999999992 24912.322499999987 4.211410657930437
1.699999999999999 24907.849500000004 5.51792962054579
1.799999999999999 24899.38050000003 7.216477485400799
1.8999999999999988 24889.63349999997 7.564896258733824
1.9999999999999987 24878.739000000038 7.376875849388993
2.0999999999999988 24868.856999999985 6.847988459828606
2.199999999999999 24859.622999999992 6.813684561035834
2.299999999999999 24849.372 7.814933729033723
2.399999999999999 24838.585500000037 8.302522003681787
2.499999999999999 24827.4615 8.379258900984617
2.599999999999999 24815.85149999999 8.884291101622999
2.6999999999999993 24804.065999999995 8.809810256569463
2.7999999999999994 24792.474000000017 9.25102185736277
2.8999999999999995 24780.661500000006 9.632494625106313
2.9999999999999996 24767.782499999998 9.8287103577884
3.0999999999999996 24754.87650000003 10.407031471752893
3.1999999999999997 24741.78600000001 10.46222548801942
3.3 24728.592 10.177702177879926
3.4 24715.555500000053 10.889455909272973
3.5 24701.722500000025 11.107863357926995
3.6 24686.845499999996 11.36994526835584
3.7 24672.724499999982 11.173459443965761
3.8000000000000003 24658.351499999997 12.010055752959195
3.9000000000000004 24643.37550000001 12.803092162400405
4.0 24628.993500000022 13.29403773084719
4.1 24613.738500000014 13.526393868325844
4.199999999999999 24597.515999999963 13.154972341183248
4.299999999999999 24582.530999999988 13.538291041498825
4.399999999999999 24565.9845 14.514102415200147
4.499999999999998 24550.42799999999 14.757323422443385
4.599999999999998 24533.12999999999 14.906737094710254
4.6999999999999975 24517.803 14.843264920950316
4.799999999999997 24500.01899999999 14.815401956583411
4.899999999999997 24483.274500000007 15.06693107975751
4.9999999999999964 24465.85499999998 15.875720881695711
5.099999999999996 24448.660500000027 16.75469216247986
5.199999999999996 24432.27149999997 16.235890548161855
5.299999999999995 24413.583000000006 16.430766296222483
5.399999999999995 24395.54250000003 17.15811308374542
5.499999999999995 24376.70999999999 17.87093367091568
5.599999999999994 24359.056500000013 18.549140906747642
5.699999999999994 24339.877500000006 17.868310504081506
5.799999999999994 24320.72999999998 18.372497071673443
5.899999999999993 24301.37999999997 18.50222776944537
5.999999999999993 24283.929 17.791219364801425
6.0999999999999925 24262.432500000003 19.60976125521383
6.199999999999992 24244.14 19.437842723145348
6.299999999999992 24223.89000000004 20.12239575226598
6.3999999999999915 24203.62650000004 20.574901562931586
6.499999999999991 24183.372000000014 20.35144459976484
6.599999999999991 24163.00499999999 20.984502003248007
6.69999999999999 24143.68200000004 21.400042940093282
6.79999999999999 24121.45200000002 21.129745908603958
6.89999999999999 24100.941 22.186736359146497
6.999999999999989 24079.75500000002 22.74323481235091
7.099999999999989 24059.18550000001 21.831157532050128
7.199999999999989 24036.699 22.974861114775926
7.299999999999988 24015.391499999998 23.396738771357477
7.399999999999988 23995.05600000001 23.747564313226146
7.499999999999988 23971.4895 24.366891166809474
7.599999999999987 23949.86249999997 24.62175002562419
7.699999999999987 23928.442499999997 24.71558828055791
7.7999999999999865 23906.725499999975 24.255096566690046
7.899999999999986 23882.9295 25.88430561222431
7.999999999999986 23859.399000000023 25.908851143336463
