# Rounds: 5000, repetitions: 1000
# Good arm ~ N(5.0,1.0), 10 bad arm(s) ~ N(2.0,1.0)
# Observation noise range from 0.5 to 8.0 with step size 0.1

# Observation noise | mean | standard deviation

0.5 24962.953711604478 69.48292373473217
0.6 24964.35486292826 69.73672932440856
0.7 24960.894501693427 71.11308632698243
0.7999999999999999 24956.13476232759 72.2247388292151
0.8999999999999999 24958.22219131686 70.73535799588416
0.9999999999999999 24949.343126112934 73.7162419714639
1.0999999999999999 24938.20755147807 71.48757575277892
1.1999999999999997 24935.428651800186 70.71172906751764
1.2999999999999996 24921.58554838614 72.16718238974246
1.3999999999999995 24911.988857597553 69.76138254056438
1.4999999999999993 24904.452656497222 67.23128840260904
1.5999999999999992 24897.84230005504 70.13579664760296
1.699999999999999 24884.493384534453 71.25688289256234
1.799999999999999 24877.676578754224 71.03375561536744
1.8999999999999988 24861.957585861943 71.9192313954133
1.9999999999999987 24851.717316050752 73.44979505260739
2.0999999999999988 24836.844585614934 72.08123245596926
2.199999999999999 24826.200994145063 70.5782144877926
2.299999999999999 24812.188806501385 74.13981510112535
2.399999999999999 24795.631213481018 73.11723379368333
2.499999999999999 24783.88461661702 72.97779797296849
2.599999999999999 24776.767156481837 74.0776138946733
2.6999999999999993 24759.08227513096 69.56587670631848
2.7999999999999994 24741.24793857089 72.95415460659629
2.8999999999999995 24728.434517392405 73.24944941295031
2.9999999999999996 24712.052061456587 72.43433805943937
3.0999999999999996 24701.211715182842 75.49186971169324
3.1999999999999997 24685.205453483228 73.9936681609257
3.3 24671.35493165126 71.22497708325581
3.4 24647.10622150696 73.97507900289534
3.5 24633.448891855027 74.00038516532575
3.6 24617.97258322403 75.21502676447741
3.7 24595.251017176288 76.08667839341192
3.8000000000000003 24583.558556401542 74.69332993036734
3.9000000000000004 24564.362648444687 71.16517821556107
4.0 24549.04792054834 72.89307601157168
4.1 24527.491323789265 77.14279879345108
4.199999999999999 24510.389607098492 74.32864939850639
4.299999999999999 24490.785551467827 79.5951979573424
4.399999999999999 24471.47871052192 77.62743876836024
4.499999999999998 24450.565570713796 79.71089360613009
4.599999999999998 24436.54087815887 75.43729318209655
4.6999999999999975 24416.75765891072 78.61945295834202
4.799999999999997 24395.881703727897 76.81773180258281
4.899999999999997 24374.050112622353 77.34888921842375
4.9999999999999964 24357.194423714995 78.18954126771874
5.099999999999996 24334.990006024964 78.07961223205825
5.199999999999996 24309.503777025882 78.93032555319965
5.299999999999995 24296.092050250012 81.79282015422868
5.399999999999995 24271.4649183537 80.7490748258264
5.499999999999995 24253.084842552093 79.2817835031956
5.599999999999994 24235.662196186422 81.78831891799955
5.699999999999994 24209.64922350837 81.22373191266313
5.799999999999994 24187.945297461592 79.44693318173763
5.899999999999993 24164.658528054853 78.32853485655416
5.999999999999993 24142.69543827669 81.38876704686541
6.0999999999999925 24118.87391427963 81.6513413505552
6.199999999999992 24098.441272127606 82.21339489662469
6.299999999999992 24075.368471156507 80.1739585389013
6.3999999999999915 24055.16078735446 82.7616549805076
6.499999999999991 24034.933605601 82.61398688152323
6.599999999999991 24007.961132118122 80.23534440910481
6.69999999999999 23985.58131358924 83.8861110633604
6.79999999999999 23959.804802695988 79.5469449803434
6.89999999999999 23940.67853912595 84.30914342754154
6.999999999999989 23913.554582569526 86.0345082141284
7.099999999999989 23884.3192982475 84.41683605020431
7.199999999999989 23870.807195511858 84.72167355362488
7.299999999999988 23843.14623638852 86.75613816509389
7.399999999999988 23814.861121032143 82.6538302686706
7.499999999999988 23796.09251882063 87.17870487639316
7.599999999999987 23773.268270839762 85.91648244380924
7.699999999999987 23745.876938609552 87.09050327444514
7.7999999999999865 23719.50551456967 87.00192933222664
7.899999999999986 23694.55431297083 86.46052034560644
7.999999999999986 23668.004975510386 87.81530973778915
