# Rounds: 100, repetitions: 1000
# Good arm ~ N(5.0,0.0), 7 bad arm(s) ~ N(3.0,0.0)
# Observation noise range from 0.5 to 8.0 with step size 0.1

# Observation noise | mean | standard deviation

0.5 486.73199999999974 6.640200920775508
0.6 486.3019999999999 7.1386102117818195
0.7 485.99200000000025 5.970895040744533
0.7999999999999999 483.9980000000003 6.193412173782297
0.8999999999999999 480.92400000000015 6.853407414796894
0.9999999999999999 478.56200000000035 7.136882449017298
1.0999999999999999 475.8719999999997 7.055877082361997
1.1999999999999997 473.192 6.913966946618937
1.2999999999999996 470.46599999999967 6.756070491675498
1.3999999999999995 467.2699999999998 7.2082632484572144
1.4999999999999993 464.7940000000001 7.138944496809645
1.5999999999999992 461.7919999999999 7.387781488059549
1.699999999999999 458.71799999999996 7.14531535563907
1.799999999999999 455.10799999999995 8.758141414766117
1.8999999999999988 452.28599999999966 8.660785946622449
1.9999999999999987 448.88199999999955 8.86592807779763
2.0999999999999988 445.54200000000014 9.766351295013813
2.199999999999999 442.1919999999999 9.551039648036157
2.299999999999999 439.5040000000002 9.860792017846192
2.399999999999999 435.8899999999998 10.573727048855758
2.499999999999999 432.9880000000007 11.043269887574507
2.599999999999999 429.722 11.08212657974675
2.6999999999999993 426.5500000000002 11.187433068343239
2.7999999999999994 422.54200000000003 12.571088587241288
2.8999999999999995 420.2340000000004 12.285282746936414
2.9999999999999996 418.0280000000001 12.700256395542272
3.0999999999999996 414.3320000000001 13.311159339552773
3.1999999999999997 411.13 13.173026555375518
3.3 408.152 13.561150423205275
3.4 405.08800000000036 14.091374057302692
3.5 402.3519999999996 13.793997621080361
3.6 398.73600000000005 14.695109739306124
3.7 397.68 14.105338016529775
3.8000000000000003 394.17999999999967 14.760266442902209
3.9000000000000004 391.82000000000033 15.510001939398965
4.0 389.3539999999998 14.90868716396428
4.1 386.8200000000008 15.030952382651252
4.199999999999999 384.45599999999985 15.062368304451294
4.299999999999999 382.00799999999975 15.306541942131354
4.399999999999999 380.1960000000001 15.191061593988506
4.499999999999998 376.96000000000004 15.435434968042006
4.599999999999998 375.9359999999998 15.13621514808141
4.6999999999999975 374.2440000000005 15.5524384693315
4.799999999999997 371.86999999999983 15.466295817237764
4.899999999999997 370.02199999999976 15.569776296849405
4.9999999999999964 368.67999999999984 15.03634568941842
5.099999999999996 367.8079999999998 14.696772813482934
5.199999999999996 366.0699999999996 15.290418467030166
5.299999999999995 363.57400000000024 15.071485450136445
5.399999999999995 361.7420000000002 15.128327809189713
5.499999999999995 361.434 14.460731542932288
5.599999999999994 359.8479999999999 15.166242478310524
5.699999999999994 358.99999999999983 14.623469008612352
5.799999999999994 357.51600000000036 13.562510301772532
5.899999999999993 355.776 13.906229079344515
5.999999999999993 355.02600000000007 14.589591501484206
6.0999999999999925 353.9240000000003 13.568873878783693
6.199999999999992 352.8660000000001 13.886788213510226
6.299999999999992 351.85999999999984 13.314265645151801
6.3999999999999915 350.6680000000001 13.4392853377845
6.499999999999991 350.5859999999996 12.85822452510213
6.599999999999991 349.0120000000001 13.005883630457754
6.69999999999999 348.1060000000006 12.482651183966498
6.79999999999999 348.2399999999995 13.127479984015622
6.89999999999999 346.8499999999999 13.012256484515621
6.999999999999989 346.48600000000005 12.398609983765503
7.099999999999989 345.77399999999994 12.608405763453835
7.199999999999989 345.27999999999963 12.64410825141391
7.299999999999988 344.2939999999999 12.415946187049919
7.399999999999988 343.5979999999996 12.225377534287274
7.499999999999988 343.2520000000001 12.015692775403032
7.599999999999987 342.8460000000004 11.992835866137423
7.699999999999987 342.4639999999995 11.689711431568961
7.7999999999999865 341.3739999999996 11.740270778732427
7.899999999999986 341.09399999999954 11.571389763596283
7.999999999999986 341.2119999999998 11.448236463233886
