# Rounds: 100, repetitions: 1000
# Good arm ~ N(5.0,0.0), 7 bad arm(s) ~ N(0.0,0.0)
# Observation noise range from 0.5 to 4.0 with step size 0.1

# Observation noise | mean | standard deviation

0.5 469.5899999999997 1.8399144777095866
0.6 469.4299999999997 2.1400186166666364
0.7 469.3149999999998 2.4518945301106942
0.7999999999999999 469.1749999999999 2.7298034410606693
0.8999999999999999 469.03 2.83145141528456
0.9999999999999999 468.79500000000024 3.4835484940086516
1.0999999999999999 468.5799999999999 3.9874176479896986
1.1999999999999997 468.0599999999999 4.691312013542543
1.2999999999999996 467.63000000000034 5.153606471167481
1.3999999999999995 467.13000000000005 4.830780106404816
1.4999999999999993 465.6199999999995 6.411451216901455
1.5999999999999992 464.19499999999965 7.1887866607414646
1.699999999999999 462.7200000000008 7.1591097807515816
1.799999999999999 459.94500000000005 7.757715975540565
1.8999999999999988 456.27000000000015 8.934031392205704
1.9999999999999987 453.48500000000064 9.105640432593814
2.0999999999999988 450.2149999999998 8.863257433490935
2.199999999999999 445.87999999999994 9.4188276507384
2.299999999999999 442.80000000000007 9.70072698843252
2.399999999999999 439.82499999999953 10.141361951050841
2.499999999999999 435.9550000000004 9.742067690325397
2.599999999999999 431.7300000000003 10.455449125523721
2.6999999999999993 427.8850000000002 11.23512363096211
2.7999999999999994 424.40499999999975 11.417150534451475
2.8999999999999995 420.6350000000004 11.253818170888655
2.9999999999999996 415.7099999999994 12.861232884576461
3.0999999999999996 411.58000000000044 12.801072902982284
3.1999999999999997 407.34499999999997 13.14148673756792
3.3 402.9149999999999 13.636852229849065
3.4 398.9600000000003 13.339653156898313
3.5 393.6550000000001 14.400463476858928
3.6 390.0849999999997 14.83873185157553
3.7 385.52499999999986 16.062608206091106
3.8000000000000003 380.6100000000002 15.71065640655171
3.9000000000000004 375.61499999999995 16.046939872738314
4.0 370.9900000000005 16.437459964668854
