# Rounds: 500, repetitions: 1000
# Good arm ~ N(5.0,0.0), 1 bad arm(s) ~ N(0.5,0.0)
# Observation noise range from 0.5 to 4.0 with step size 0.1

# Observation noise | mean | standard deviation

0.5 2499.2805 2.7591089924887493
0.6 2499.1005000000014 3.0278404131604475
0.7 2498.911499999998 3.172062377969538
0.7999999999999999 2499.127500000002 2.9659383912246997
0.8999999999999999 2499.050999999996 3.113774974945143
0.9999999999999999 2498.722500000002 3.513415409233296
1.0999999999999999 2498.7720000000027 3.2106579270181017
1.1999999999999997 2498.627999999999 3.4078922708515735
1.2999999999999996 2498.088000000002 3.747171906557986
1.3999999999999995 2497.309500000004 3.9617742749184237
1.4999999999999993 2496.7109999999993 3.901756361268958
1.5999999999999992 2495.8019999999983 3.740024569943867
1.699999999999999 2495.3835000000026 3.4706228508688266
1.799999999999999 2494.9379999999983 3.2909704475255475
1.8999999999999988 2494.1009999999983 3.83595014481594
1.9999999999999987 2493.601500000002 3.431504476606863
2.0999999999999988 2492.8499999999985 3.469948204302272
2.199999999999999 2491.8735000000006 3.788614700830798
2.299999999999999 2491.0454999999984 3.769003201794257
2.399999999999999 2490.222000000004 3.9025563347562398
2.499999999999999 2489.439000000003 3.783595458633845
2.599999999999999 2488.3815000000027 4.3482312340611085
2.6999999999999993 2487.630000000002 3.926004777571383
2.7999999999999994 2486.577000000002 4.192570649213745
2.8999999999999995 2485.6590000000024 4.1047006672311195
2.9999999999999996 2484.2955 4.4337442233216455
3.0999999999999996 2483.4089999999983 4.39101355042316
3.1999999999999997 2482.4640000000013 4.502107614548193
3.3 2481.451500000001 4.654359334087856
3.4 2480.186999999996 4.7387220309368665
3.5 2478.9674999999984 4.863213402123588
3.6 2477.8965000000053 4.812296327736466
3.7 2476.559999999996 4.9516581989187065
3.8000000000000003 2475.4710000000023 5.507039720801574
3.9000000000000004 2474.0669999999977 5.380377259956722
4.0 2472.586500000002 5.2847134213641205
