# Rounds: 500, repetitions: 1000
# Good arm ~ N(5.0,0.0), 1 bad arm(s) ~ N(2.3,0.0)
# Observation noise range from 0.5 to 4.0 with step size 0.1

# Observation noise | mean | standard deviation

0.5 2499.6999 4.3370196828848195
0.6 2499.5891999999963 4.455169120459109
0.7 2499.251700000002 5.009064567146124
0.7999999999999999 2499.367799999999 4.507780301128676
0.8999999999999999 2498.6954999999975 4.69815734436734
0.9999999999999999 2497.988099999997 4.816131592213155
1.0999999999999999 2497.6992000000014 4.206120636740088
1.1999999999999997 2497.205099999998 4.3206680226745044
1.2999999999999996 2496.5301000000004 4.447174535741881
1.3999999999999995 2496.0792000000006 3.7582618179008995
1.4999999999999993 2495.2448999999974 4.2155194928495385
1.5999999999999992 2494.4375999999957 3.8830509041634342
1.699999999999999 2493.857099999996 3.5744406857879243
1.799999999999999 2492.871599999998 4.064555824940035
1.8999999999999988 2491.9131000000007 4.053458883338845
1.9999999999999987 2491.219199999999 3.7305882443186067
2.0999999999999988 2489.9717999999984 4.163625888638447
2.199999999999999 2489.2643999999987 3.741557415287352
2.299999999999999 2488.2275999999997 3.9876333155719768
2.399999999999999 2487.0125999999987 3.8637403807360085
2.499999999999999 2485.994700000001 3.9770263575501983
2.599999999999999 2484.647399999997 4.209738131420485
2.6999999999999993 2483.745600000002 4.161848341977632
2.7999999999999994 2482.3011000000006 4.881417522300974
2.8999999999999995 2480.9673 4.704694981065708
2.9999999999999996 2479.8062999999993 4.69867298690145
3.0999999999999996 2478.6615000000065 4.4641613418968085
3.1999999999999997 2477.165699999997 4.995322487763572
3.3 2475.5133 5.259495736798857
3.4 2474.349600000004 5.0869358907653535
3.5 2473.080599999998 5.068411233555589
3.6 2471.277 5.670199481690438
3.7 2470.429200000002 5.169106985449921
3.8000000000000003 2468.8658999999966 5.582269155004891
3.9000000000000004 2467.2702 5.800879430065956
4.0 2465.293800000002 5.809829229476158
