# Rounds: 500, repetitions: 1000
# Good arm ~ N(5.0,0.0), 1 bad arm(s) ~ N(3.5,0.0)
# Observation noise range from 0.5 to 4.0 with step size 0.1

# Observation noise | mean | standard deviation

0.5 2499.4619999999973 5.345945672669641
0.6 2499.1320000000005 5.324229843218948
0.7 2498.625000000003 5.062559086519823
0.7999999999999999 2497.841999999995 5.356232372220733
0.8999999999999999 2497.4655000000025 4.657762821838887
0.9999999999999999 2496.66 4.633991138735001
1.0999999999999999 2495.7255000000005 4.522095653466349
1.1999999999999997 2495.056499999999 4.548378336890566
1.2999999999999996 2494.1490000000003 4.414157199713641
1.3999999999999995 2493.184499999999 4.064200718158161
1.4999999999999993 2492.134499999999 4.13458032991314
1.5999999999999992 2490.5849999999987 4.317860456165622
1.699999999999999 2489.838 3.842723321099576
1.799999999999999 2488.3004999999976 4.360270830087437
1.8999999999999988 2486.956499999999 4.193022679307757
1.9999999999999987 2485.7984999999962 4.159922199116558
2.0999999999999988 2484.601499999997 3.873622684607075
2.199999999999999 2482.9004999999997 4.042485799782231
2.299999999999999 2481.5910000000044 4.073857547253639
2.399999999999999 2480.226 4.25264729421674
2.499999999999999 2478.4589999999976 4.427179567051583
2.599999999999999 2476.716 4.63565888880245
2.6999999999999993 2475.3735000000006 4.566574356270935
2.7999999999999994 2473.708500000005 4.8018575140861195
2.8999999999999995 2472.1875 4.648300813248907
2.9999999999999996 2470.241999999996 4.965288520326879
3.0999999999999996 2468.606999999999 5.274739223305168
3.1999999999999997 2466.6675000000023 5.345069084073047
3.3 2465.0745000000034 5.625775422028421
3.4 2462.7134999999994 5.974140784088371
3.5 2461.2210000000005 5.3138871268024115
3.6 2459.4705000000004 6.128943113922167
3.7 2457.4455000000016 6.277155600463706
3.8000000000000003 2455.1744999999996 6.655606422171233
3.9000000000000004 2453.208 6.893856776961744
4.0 2451.342000000001 6.67825839086322
