# Rounds: 500, repetitions: 1000
# Good arm ~ N(5.0,0.0), 1 bad arm(s) ~ N(4.8,0.0)
# Observation noise range from 0.5 to 4.0 with step size 0.1

# Observation noise | mean | standard deviation

0.5 2497.356 1.2285166882273368
0.6 2495.175200000001 1.2171386060700915
0.7 2492.8996 1.375140302242153
0.7999999999999999 2490.645600000004 1.482254268915288
0.8999999999999999 2488.3675999999973 1.4300332986455764
0.9999999999999999 2486.0583999999976 1.691345644772265
1.0999999999999999 2483.9163999999982 1.6959148466733813
1.1999999999999997 2481.578999999998 1.9612867321342458
1.2999999999999996 2479.6131999999993 2.0041163245286926
1.3999999999999995 2477.5563999999986 2.209982593384663
1.4999999999999993 2475.748599999996 2.3221521118201296
1.5999999999999992 2473.9507999999987 2.3049017184974194
1.699999999999999 2472.2266 2.485008593085321
1.799999999999999 2470.5729999999967 2.592055120893444
1.8999999999999988 2469.078999999997 2.7009876590489554
1.9999999999999987 2467.5753999999974 2.8760435439101077
2.0999999999999988 2466.2731999999955 2.791679644091643
2.199999999999999 2464.853199999998 2.980505523090631
2.299999999999999 2463.592800000001 3.085713821758373
2.399999999999999 2462.4471999999987 3.0529285174293417
2.499999999999999 2461.3877999999972 3.0927942926320675
2.599999999999999 2460.2512000000006 3.175598051231207
2.6999999999999993 2459.4689999999896 3.1359325683237325
2.7999999999999994 2458.629400000002 3.2988328144873016
2.8999999999999995 2457.597399999999 3.2509016597864546
2.9999999999999996 2456.8407999999963 3.2743268890838206
3.0999999999999996 2456.0243999999957 3.409232686031871
3.1999999999999997 2455.0252 3.6920937849027093
3.3 2454.2039999999993 3.546976888146552
3.4 2453.3931999999995 3.6166384715416173
3.5 2452.970400000003 3.7278063764607787
3.6 2452.0561999999973 3.573487284344551
3.7 2451.5248000000047 3.5871454629793353
3.8000000000000003 2450.944200000002 3.730764662232842
3.9000000000000004 2450.390600000003 3.847767788856051
4.0 2449.7844000000046 3.7115188281905964
