# Rounds: 500, repetitions: 1000
# Good arm ~ N(5.0,0.0), 1 bad arm(s) ~ N(4.7,0.0)
# Observation noise range from 0.5 to 4.0 with step size 0.1

# Observation noise | mean | standard deviation

0.5 2498.444699999998 1.9258506719917245
0.6 2496.624000000001 1.9740569649584925
0.7 2494.753800000002 1.8860388921501332
0.7999999999999999 2492.6237999999985 1.8800873086876813
0.8999999999999999 2490.4752000000044 1.8995718815916314
0.9999999999999999 2488.3401000000017 1.960026452294443
1.0999999999999999 2486.078700000002 2.0035994411860365
1.1999999999999997 2483.839499999998 2.1671331791600648
1.2999999999999996 2481.5139000000017 2.307149698162172
1.3999999999999995 2479.2054000000016 2.714420549384095
1.4999999999999993 2476.8543000000004 2.7298853059760253
1.5999999999999992 2474.646300000002 2.6867200774875406
1.699999999999999 2472.3371999999963 2.968765691281401
1.799999999999999 2470.2851999999984 3.039460359879546
1.8999999999999988 2468.0636999999992 3.236564174809068
1.9999999999999987 2465.959199999999 3.355585688864897
2.0999999999999988 2464.0748999999983 3.564048601300529
2.199999999999999 2462.0841000000014 3.7005501295430068
2.299999999999999 2460.0303000000004 3.748594919949785
2.399999999999999 2458.133700000002 4.041253027964842
2.499999999999999 2456.4987000000037 3.990989389400249
2.599999999999999 2454.5483999999983 4.276464145247182
2.6999999999999993 2452.8434999999995 4.301497486995645
2.7999999999999994 2451.235200000002 4.614190255257193
2.8999999999999995 2449.731 4.765842239547063
2.9999999999999996 2448.0935999999997 4.836764758940799
3.0999999999999996 2446.6827 4.9785677505528625
3.1999999999999997 2445.169799999996 5.064962171803496
3.3 2443.7174999999984 5.138788855450206
3.4 2442.547500000001 5.147765849690657
3.5 2441.047800000002 5.150419592807961
3.6 2440.0208999999995 5.235848288223757
3.7 2438.454299999999 5.387675617421346
3.8000000000000003 2437.434900000001 5.357321427997444
3.9000000000000004 2436.3402000000033 5.528827352331578
4.0 2435.259299999998 5.868215185169701
