# Rounds: 500, repetitions: 1000
# Good arm ~ N(5.0,0.0), 1 bad arm(s) ~ N(1.7,0.0)
# Observation noise range from 0.5 to 4.0 with step size 0.1

# Observation noise | mean | standard deviation

0.5 2499.6011999999946 3.953034915738061
0.6 2499.5022000000044 3.747692671546003
0.7 2499.2877000000035 4.09543053429801
0.7999999999999999 2499.393299999999 3.954268750521509
0.8999999999999999 2498.970899999998 4.38644093247057
0.9999999999999999 2498.8950000000004 4.224952689110785
1.0999999999999999 2498.383500000004 4.190594090201101
1.1999999999999997 2497.6146000000012 4.458275794863146
1.2999999999999996 2496.980999999997 4.111980956593468
1.3999999999999995 2496.5585999999985 3.7421504151663574
1.4999999999999993 2495.9382000000037 3.8382799732632025
1.5999999999999992 2495.3837999999996 3.8596910206355752
1.699999999999999 2494.5984 3.7366991262824847
1.799999999999999 2493.803099999998 3.686262188032613
1.8999999999999988 2493.1859999999974 3.471604245307346
1.9999999999999987 2492.222400000001 3.809962474100519
2.0999999999999988 2491.285200000003 3.7173484689546807
2.199999999999999 2490.354599999999 4.051969557795019
2.299999999999999 2489.605500000003 3.907647560804307
2.399999999999999 2488.539600000004 3.9035739687791207
2.499999999999999 2487.7343999999994 3.6290779609767427
2.599999999999999 2486.4705 4.130067457948786
2.6999999999999993 2485.282499999999 4.22865999050709
2.7999999999999994 2484.556499999997 4.1513915500469984
2.8999999999999995 2483.2562999999973 4.067976000265796
2.9999999999999996 2482.3092 4.290398918851512
3.0999999999999996 2480.9396999999976 4.340533854739946
3.1999999999999997 2479.7022000000006 4.488842263308477
3.3 2478.362399999996 4.594892738604376
3.4 2477.3361000000023 4.6952115822188185
3.5 2475.567300000001 4.990234779361929
3.6 2474.3066999999987 4.805461223188469
3.7 2472.7821000000004 5.345036857591326
3.8000000000000003 2471.798699999998 5.673922956095886
3.9000000000000004 2470.2510000000043 5.533689611888343
4.0 2468.881500000002 5.818756368475654
