# Rounds: 500, repetitions: 1000
# Good arm ~ N(5.0,0.0), 1 bad arm(s) ~ N(2.6,0.0)
# Observation noise range from 0.5 to 4.0 with step size 0.1

# Observation noise | mean | standard deviation

0.5 2499.5735999999984 5.0109093238904405
0.6 2499.468 5.284810803162629
0.7 2499.4439999999986 4.769739449321553
0.7999999999999999 2498.755200000001 5.1239601801660974
0.8999999999999999 2498.3832000000043 4.783124087459559
0.9999999999999999 2497.8384000000024 4.5608559335772085
1.0999999999999999 2497.4664 4.215238935016484
1.1999999999999997 2496.8759999999984 4.301284115824574
1.2999999999999996 2496.0912000000017 4.495479050322885
1.3999999999999995 2495.5584000000003 4.167065379121663
1.4999999999999993 2494.3320000000026 4.310790985297145
1.5999999999999992 2493.746400000001 4.545999686884439
1.699999999999999 2493.1848000000014 3.435539534322409
1.799999999999999 2492.2416000000003 3.767777273882531
1.8999999999999988 2491.2815999999966 3.736429089698145
1.9999999999999987 2490.2352000000014 4.259608576527358
2.0999999999999988 2489.351999999998 3.6649594715259646
2.199999999999999 2488.1064000000024 4.074604452145175
2.299999999999999 2487.100799999999 4.1619371788964825
2.399999999999999 2485.898400000001 4.071660085991417
2.499999999999999 2485.0032000000015 4.047840754621465
2.599999999999999 2483.378399999997 4.6293503134159195
2.6999999999999993 2482.132799999999 4.739082512793287
2.7999999999999994 2481.283199999997 4.070779901813549
2.8999999999999995 2479.968 4.746306292626246
2.9999999999999996 2478.328799999998 4.6102000503779195
3.0999999999999996 2477.020799999999 4.485193900415496
3.1999999999999997 2475.4896000000062 5.1490974981102395
3.3 2474.138399999998 5.030569756207751
3.4 2472.6024000000048 5.345571004988065
3.5 2471.3880000000026 5.169543517582613
3.6 2469.6072000000013 5.361183679976879
3.7 2467.653600000005 5.625311651026212
3.8000000000000003 2466.6600000000008 5.592465974476352
3.9000000000000004 2465.174399999999 5.598024876911747
4.0 2463.544800000002 5.816891712004712
