# Rounds: 500, repetitions: 1000
# Good arm ~ N(5.0,0.0), 1 bad arm(s) ~ N(2.5,0.0)
# Observation noise range from 0.5 to 4.0 with step size 0.1

# Observation noise | mean | standard deviation

0.5 2499.5200000000027 4.959253390803297
0.6 2499.329999999999 4.990090279844756
0.7 2499.539999999999 4.682181417119882
0.7999999999999999 2498.7724999999964 5.492464010888983
0.8999999999999999 2498.587499999998 4.571048921006905
0.9999999999999999 2498.024999999998 4.2711377427587065
1.0999999999999999 2497.3424999999993 4.802812796764085
1.1999999999999997 2496.9550000000004 4.178269131223249
1.2999999999999996 2495.9550000000013 4.729994487084316
1.3999999999999995 2495.775000000002 3.6742856959381114
1.4999999999999993 2494.914999999999 3.762569857415492
1.5999999999999992 2494.0974999999985 4.243789992860569
1.699999999999999 2493.319999999998 3.7035545515512696
1.799999999999999 2492.6250000000023 3.7647773571020777
1.8999999999999988 2491.4850000000047 4.126051296251595
1.9999999999999987 2490.527499999998 4.061340694676838
2.0999999999999988 2489.654999999998 3.7726261022936964
2.199999999999999 2488.742499999999 3.530213330119883
2.299999999999999 2487.4449999999993 4.0605989045291695
2.399999999999999 2486.462500000002 3.7525225082836102
2.499999999999999 2485.0600000000018 4.168486089250656
2.599999999999999 2484.0224999999978 4.131320801095141
2.6999999999999993 2482.739999999999 4.452496459821703
2.7999999999999994 2481.3875000000003 4.252843805082703
2.8999999999999995 2480.232499999999 4.3998923626383
2.9999999999999996 2478.9499999999966 4.4418160396092174
3.0999999999999996 2477.415000000004 4.823488472157973
3.1999999999999997 2476.1974999999966 4.6938018200095994
3.3 2474.9650000000006 4.981072784660546
3.4 2473.7050000000004 4.953282750864294
3.5 2471.7724999999978 5.188102751503703
3.6 2470.4899999999966 5.446518572865083
3.7 2468.6100000000015 5.456434061974233
3.8000000000000003 2467.3975000000037 5.492122281701045
3.9000000000000004 2465.562499999997 6.010488309590154
4.0 2464.3774999999987 6.182189192609117
