# Rounds: 500, repetitions: 1000
# Good arm ~ N(5.0,0.0), 1 bad arm(s) ~ N(3.6,0.0)
# Observation noise range from 0.5 to 4.0 with step size 0.1

# Observation noise | mean | standard deviation

0.5 2498.961800000002 6.072490090226224
0.6 2498.930999999999 5.103006925301886
0.7 2498.6482 5.392720852983033
0.7999999999999999 2497.936999999999 4.755574254123972
0.8999999999999999 2497.263600000001 4.900315104983373
0.9999999999999999 2496.584599999999 4.627164735936425
1.0999999999999999 2495.5374000000047 4.715374427974487
1.1999999999999997 2494.4342000000006 4.953767270489195
1.2999999999999996 2493.5060000000003 4.513625684171932
1.3999999999999995 2492.3538 4.890413244471396
1.4999999999999993 2491.3037999999997 4.310406612509405
1.5999999999999992 2490.193600000005 4.524116119936209
1.699999999999999 2488.975599999996 4.334728885929813
1.799999999999999 2487.869599999999 3.6257056667056355
1.8999999999999988 2486.489200000001 3.958984328955693
1.9999999999999987 2485.159199999998 3.8904229526814604
2.0999999999999988 2483.5856000000017 3.955431465476056
2.199999999999999 2482.103000000002 4.217707915451254
2.299999999999999 2480.648399999997 3.896557532053207
2.399999999999999 2478.930599999996 4.323914878889243
2.499999999999999 2477.4213999999956 4.8840880782758385
2.599999999999999 2475.7161999999994 4.464722982594928
2.6999999999999993 2474.2574000000022 4.309361418567238
2.7999999999999994 2471.976800000003 5.184532875885819
2.8999999999999995 2470.5403999999994 5.033760680305194
2.9999999999999996 2468.8379999999993 5.040400940564309
3.0999999999999996 2466.9004 5.247713629604623
3.1999999999999997 2465.4164 5.248222067984042
3.3 2463.286999999997 5.8237777590999436
3.4 2461.5957999999973 6.127162841355216
3.5 2459.439800000001 5.966088347499529
3.6 2457.8704000000016 6.172800604855716
3.7 2455.591200000002 6.218343055054936
3.8000000000000003 2453.7543999999984 6.717696635610147
3.9000000000000004 2451.3450000000034 7.018806069313919
4.0 2449.2183999999975 7.2509307980035835
