# Rounds: 500, repetitions: 1000
# Good arm ~ N(5.0,0.0), 1 bad arm(s) ~ N(2.9,0.0)
# Observation noise range from 0.5 to 4.0 with step size 0.1

# Observation noise | mean | standard deviation

0.5 2499.869699999999 5.016520446224422
0.6 2499.5546999999992 5.354733521014997
0.7 2499.0485999999974 5.075872587301911
0.7999999999999999 2498.5530000000067 4.713617420749114
0.8999999999999999 2498.1771000000012 4.820068324064418
0.9999999999999999 2497.6815000000024 5.12663926760802
1.0999999999999999 2496.959099999996 4.629830722879898
1.1999999999999997 2496.381600000003 4.382685177989553
1.2999999999999996 2495.5668000000032 4.323233524586392
1.3999999999999995 2495.0711999999985 3.535773218442061
1.4999999999999993 2494.094699999998 4.080449972978722
1.5999999999999992 2492.9921999999965 4.744131737836327
1.699999999999999 2492.1668999999983 4.306220840589581
1.799999999999999 2491.360500000002 3.8661475459230594
1.8999999999999988 2490.484800000002 3.4126756827034344
1.9999999999999987 2489.1134999999995 4.030391023437057
2.0999999999999988 2487.973199999999 4.384272300348547
2.199999999999999 2486.8938000000035 4.012465755796741
2.299999999999999 2485.8039000000003 3.9189632638062712
2.399999999999999 2484.3401999999974 4.235457833937571
2.499999999999999 2483.0570999999995 4.421900359889729
2.599999999999999 2481.8244000000004 4.459330697567754
2.6999999999999993 2480.629499999999 4.300217624914089
2.7999999999999994 2479.0313999999967 4.852492217481742
2.8999999999999995 2477.618100000003 4.881261015260202
2.9999999999999996 2476.1838000000016 4.646466098790269
3.0999999999999996 2474.911200000003 4.61199360852172
3.1999999999999997 2473.441200000002 4.820167691748556
3.3 2471.855699999996 5.303607806556387
3.4 2470.2029999999963 5.237941105723405
3.5 2468.695200000003 5.4250482125146275
3.6 2467.025700000001 5.735565030249107
3.7 2465.690100000002 5.7162634349422365
3.8000000000000003 2463.8336999999997 6.1519509759759226
3.9000000000000004 2462.0949 6.332233505736452
4.0 2459.938200000003 6.076446656061734
