# Rounds: 5000, repetitions: 1000
# Good arm ~ N(5.0,0.0), 1 bad arm(s) ~ N(3.6,0.0)
# Observation noise range from 0.5 to 4.0 with step size 0.1

# Observation noise | mean | standard deviation

0.5 24998.66220000001 5.889820128080652
0.6 24998.357 4.7812897560944645
0.7 24997.73120000003 4.98797618944463
0.7999999999999999 24996.79179999997 4.227756696723276
0.8999999999999999 24995.64660000001 4.243276308918993
0.9999999999999999 24994.438399999995 3.8365041644967888
1.0999999999999999 24993.04680000003 3.885916894390562
1.1999999999999997 24991.3528 3.9747567033533917
1.2999999999999996 24989.87440000003 3.4604912425320036
1.3999999999999995 24988.039000000008 3.64229945849385
1.4999999999999993 24986.35900000001 3.04624993042885
1.5999999999999992 24984.30099999999 3.0938602054670703
1.699999999999999 24982.398400000027 2.9164401353472793
1.799999999999999 24980.460799999993 2.3568491886623697
1.8999999999999988 24978.213799999998 2.440320619247642
1.9999999999999987 24975.97800000001 2.431375657439627
2.0999999999999988 24973.54200000001 2.554157340439515
2.199999999999999 24970.994000000024 2.710237884280893
2.299999999999999 24968.51740000003 2.4145407942815353
2.399999999999999 24966.001599999978 2.6328937634417415
2.499999999999999 24963.26459999999 3.0454460398410808
2.599999999999999 24960.86499999995 2.660363233194848
2.6999999999999993 24957.94180000002 2.8737346974127798
2.7999999999999994 24954.88419999999 3.1376288937792194
2.8999999999999995 24952.163999999957 3.1738773601859065
2.9999999999999996 24949.184799999988 3.247866622507823
3.0999999999999996 24946.204199999986 3.113524754422171
3.1999999999999997 24943.19419999999 3.370829104070962
3.3 24939.960200000016 3.5804686447056273
3.4 24936.786400000005 3.641773957504717
3.5 24933.556599999993 3.7022078254449013
3.6 24930.43459999999 3.7198763850866534
3.7 24926.96260000002 4.049434424603451
3.8000000000000003 24923.451399999987 4.0156398498131205
3.9000000000000004 24920.04100000005 4.188955281016083
4.0 24916.479399999986 4.268014947442942
