# Rounds: 5000, repetitions: 1000
# Good arm ~ N(5.0,0.0), 1 bad arm(s) ~ N(3.1,0.0)
# Observation noise range from 0.5 to 4.0 with step size 0.1

# Observation noise | mean | standard deviation

0.5 24999.309500000032 5.40317444138538
0.6 24998.25309999999 5.53349708412148
0.7 24998.40510000001 4.668434241613559
0.7999999999999999 24997.626099999998 4.131163916538165
0.8999999999999999 24996.74829999998 4.452995202813046
0.9999999999999999 24995.790699999994 4.360430812072091
1.0999999999999999 24994.79890000001 4.4030052515580085
1.1999999999999997 24993.862200000036 3.634226019217864
1.2999999999999996 24992.51129999999 3.579985839163006
1.3999999999999995 24991.335200000034 2.973718877762706
1.4999999999999993 24989.991899999986 2.7657356496387826
1.5999999999999992 24988.251499999962 2.825183075379528
1.699999999999999 24986.792300000012 3.147271203126369
1.799999999999999 24985.040500000017 2.8144183592178647
1.8999999999999988 24983.34950000003 2.6755332605349693
1.9999999999999987 24981.489400000002 2.9706720674841782
2.0999999999999988 24979.595100000017 2.5781258159217404
2.199999999999999 24977.75969999996 2.8637120589818736
2.299999999999999 24975.728600000024 2.939514038542074
2.399999999999999 24973.657600000002 2.8514159312200102
2.499999999999999 24971.65499999999 2.69070155812112
2.599999999999999 24969.437700000013 2.8431201244483164
2.6999999999999993 24967.224200000026 3.0664143975104863
2.7999999999999994 24964.94230000001 2.93763687688296
2.8999999999999995 24962.548299999988 3.1416631196164984
2.9999999999999996 24959.916800000006 3.131677691775839
3.0999999999999996 24957.494300000028 3.325844065609777
3.1999999999999997 24955.21049999998 3.4558504962825443
3.3 24952.611299999957 3.5424414181753026
3.4 24949.989299999994 3.6142022588629774
3.5 24947.542099999988 3.611265543937829
3.6 24944.79090000001 3.7724552493849988
3.7 24941.802199999966 3.7450929068427556
3.8000000000000003 24939.356899999988 3.938042733462165
3.9000000000000004 24936.429000000026 4.075267697564302
4.0 24933.51630000003 4.1764155392824795
