# Rounds: 5000, repetitions: 1000
# Good arm ~ N(5.0,0.0), 1 bad arm(s) ~ N(2.5,0.0)
# Observation noise range from 0.5 to 4.0 with step size 0.1

# Observation noise | mean | standard deviation

0.5 24999.519999999997 4.959253390803338
0.6 24999.28000000003 4.9705438642372215
0.7 24999.047500000033 4.4714637131187365
0.7999999999999999 24997.8375 4.97539931546685
0.8999999999999999 24997.887499999968 4.19060316719499
0.9999999999999999 24997.129999999997 3.918348306806483
1.0999999999999999 24996.000000000022 4.2447635997800885
1.1999999999999997 24995.349999999977 3.5074637991434963
1.2999999999999996 24994.027500000033 4.0048761257724905
1.3999999999999995 24993.39500000001 2.9253260557641543
1.4999999999999993 24992.239999999958 2.9565420918940473
1.5999999999999992 24990.897499999992 3.3334450056369134
1.699999999999999 24989.777500000022 2.729779376697967
1.799999999999999 24988.399999999994 2.8719763662412388
1.8999999999999988 24986.835000000006 2.9944518265856015
1.9999999999999987 24985.475000000028 2.942453573641076
2.0999999999999988 24983.800000000003 2.7096756895138774
2.199999999999999 24982.49749999999 2.60057815817114
2.299999999999999 24980.655000000028 2.7619926871017775
2.399999999999999 24979.159999999985 2.759440978624945
2.499999999999999 24977.244999999988 2.9442560424738367
2.599999999999999 24975.457499999993 2.9863626893115236
2.6999999999999993 24973.49250000002 3.2025693123178853
2.7999999999999994 24971.679999999986 3.1164582962574996
2.8999999999999995 24969.84999999998 3.0739956814298464
2.9999999999999996 24967.86499999998 3.234924997544701
3.0999999999999996 24965.722499999985 3.3102419022560055
3.1999999999999997 24963.717499999977 3.4348569099733584
3.3 24961.670000000042 3.634805608531436
3.4 24959.612500000007 3.4649097173446277
3.5 24956.95750000001 3.6657716284066937
3.6 24954.98249999998 3.770963260748332
3.7 24952.674999999996 3.779372786410243
3.8000000000000003 24950.5025 3.9868080450892767
3.9000000000000004 24948.15499999998 3.966952446363762
4.0 24945.66750000001 4.031370200774853
