# Rounds: 5000, repetitions: 1000
# Good arm ~ N(5.0,0.0), 1 bad arm(s) ~ N(3.4,0.0)
# Observation noise range from 0.5 to 4.0 with step size 0.1

# Observation noise | mean | standard deviation

0.5 24998.921600000016 5.082031137299331
0.6 24998.67359999998 5.122532907008133
0.7 24997.758399999948 5.072624661943753
0.7999999999999999 24997.067199999998 4.972344353357693
0.8999999999999999 24996.15360000002 4.213834766983666
0.9999999999999999 24995.081599999998 4.224233135799381
1.0999999999999999 24993.636799999997 4.207882131433147
1.1999999999999997 24992.542399999984 3.4475626068180576
1.2999999999999996 24991.150400000017 3.4332093974539646
1.3999999999999995 24989.527999999984 3.0962562559969613
1.4999999999999993 24988.032000000007 3.0796071145486135
1.5999999999999992 24986.17919999997 2.6317624386584466
1.699999999999999 24984.53600000001 2.2536066078053074
1.799999999999999 24982.531199999983 2.669620466177262
1.8999999999999988 24980.558400000016 2.3340002135804374
1.9999999999999987 24978.41920000001 3.207690858022278
2.0999999999999988 24976.326400000016 2.7132314063981218
2.199999999999999 24974.24800000001 2.523787927997294
2.299999999999999 24971.796800000007 2.7995691360179773
2.399999999999999 24969.56000000006 2.733340657720885
2.499999999999999 24967.12160000001 2.991280862974908
2.599999999999999 24964.824000000004 2.6919640916380616
2.6999999999999993 24962.353600000017 2.792139517123083
2.7999999999999994 24959.528000000006 3.1088520326577074
2.8999999999999995 24956.881599999986 3.124852979924614
2.9999999999999996 24954.483200000002 3.278583057795537
3.0999999999999996 24951.452800000003 3.4470820318830624
3.1999999999999997 24948.62879999999 3.576697264701001
3.3 24945.964799999983 3.366400691184997
3.4 24942.905600000024 3.685500176576784
3.5 24940.05120000002 3.662074459830984
3.6 24936.904 3.804520781698276
3.7 24933.87199999999 3.9100107652256892
3.8000000000000003 24931.00800000003 4.082190622726473
3.9000000000000004 24927.614400000024 4.08064263128757
4.0 24924.62399999999 4.436203771683451
