# Rounds: 5000, repetitions: 1000
# Good arm ~ N(5.0,0.0), 1 bad arm(s) ~ N(0.3,0.0)
# Observation noise range from 0.5 to 4.0 with step size 0.1

# Observation noise | mean | standard deviation

0.5 24999.223700000002 2.6789335555392584
0.6 24999.209599999987 2.7020156788456937
0.7 24998.913500000006 3.03283462058756
0.7999999999999999 24998.984 2.979970507274017
0.8999999999999999 24998.98869999997 2.8570763369560987
0.9999999999999999 24998.720800000003 3.4139980583973504
1.0999999999999999 24998.61270000001 3.2173125135441634
1.1999999999999997 24997.72439999999 3.7668626061872774
1.2999999999999996 24996.709199999976 3.4946541986248985
1.3999999999999995 24995.4543 3.1963507579997312
1.4999999999999993 24994.97020000001 2.514962623379157
1.5999999999999992 24994.528399999985 2.8603907556960873
1.699999999999999 24993.917400000013 3.202560480869805
1.799999999999999 24993.07140000001 2.931176186077625
1.8999999999999988 24991.698999999993 3.446217551956245
1.9999999999999987 24990.730800000012 3.156899963156173
2.0999999999999988 24989.931800000002 2.6748240023307757
2.199999999999999 24988.850800000015 3.154096968657032
2.299999999999999 24987.793300000016 3.3319704586237435
2.399999999999999 24986.717000000008 3.1820019069981798
2.499999999999999 24985.424499999994 3.0539050551856253
2.599999999999999 24984.028600000027 3.399237687608539
2.6999999999999993 24983.05099999999 3.123083836955735
2.7999999999999994 24981.5188 3.4426353710930173
2.8999999999999995 24980.282699999992 3.104688357919748
2.9999999999999996 24978.980799999994 3.432085455021966
3.0999999999999996 24977.392200000024 3.4814047939505928
3.1999999999999997 24976.066799999953 3.7313805703738745
3.3 24974.515800000005 3.5120114727299074
3.4 24973.09639999999 3.681842338151343
3.5 24971.258700000002 3.7705677943105154
3.6 24969.759400000003 3.9003903246576352
3.7 24968.288300000015 4.118999789908593
3.8000000000000003 24966.450600000004 3.987849368090762
3.9000000000000004 24964.984199999988 4.309273743938833
4.0 24963.118300000013 4.29198511719782
