# Rounds: 5000, repetitions: 1000
# Good arm ~ N(5.0,0.0), 1 bad arm(s) ~ N(0.0,0.0)
# Observation noise range from 0.5 to 4.0 with step size 0.1

# Observation noise | mean | standard deviation

0.5 24998.95500000001 2.7277124876744763
0.6 24998.83999999999 2.7499021731621762
0.7 24998.95999999997 2.4339934930735265
0.7999999999999999 24998.740000000034 2.9276220676465314
0.8999999999999999 24998.714999999993 2.929566069805816
0.9999999999999999 24998.789999999986 2.8537771538863868
1.0999999999999999 24998.489999999987 3.06256090213391
1.1999999999999997 24998.189999999984 3.1676385421846773
1.2999999999999996 24997.375000000007 3.4707955026796697
1.3999999999999995 24995.96000000001 3.3450843919981788
1.4999999999999993 24995.024999999998 2.716938857750867
1.5999999999999992 24994.350000000028 2.309292712679127
1.699999999999999 24994.015000000018 2.4921849822968754
1.799999999999999 24993.410000000007 3.0873016424430606
1.8999999999999988 24992.225000000028 3.6452246381619307
1.9999999999999987 24991.25499999998 3.2955782248090517
2.0999999999999988 24990.020000000022 2.933974813833298
2.199999999999999 24989.16499999999 2.9642134811045047
2.299999999999999 24988.01500000001 2.8884456231887534
2.399999999999999 24987.01999999999 3.182723633891214
2.499999999999999 24985.864999999998 3.0390806193668256
2.599999999999999 24984.820000000003 3.078486166458625
2.6999999999999993 24983.355000000014 3.1110534636443536
2.7999999999999994 24982.065000000013 3.2820034348773333
2.8999999999999995 24980.97 3.2664613528663655
2.9999999999999996 24979.395000000033 3.587735615516665
3.0999999999999996 24978.225000000013 3.3964556394734227
3.1999999999999997 24976.550000000007 3.662091057157208
3.3 24975.075000000004 3.705820841339716
3.4 24973.935 3.6680007128174705
3.5 24972.32000000001 3.90933279254696
3.6 24970.755000000016 3.8170072759354596
3.7 24969.09499999997 3.983948650126753
3.8000000000000003 24967.75 3.9627267383965807
3.9000000000000004 24965.89999999998 3.9630424809362714
4.0 24964.265000000014 4.284055103301989
