# Rounds: 5000, repetitions: 1000
# Good arm ~ N(5.0,0.0), 1 bad arm(s) ~ N(4.7,0.0)
# Observation noise range from 0.5 to 4.0 with step size 0.1

# Observation noise | mean | standard deviation

0.5 24995.809800000003 1.2579134732990078
0.6 24992.757900000026 1.160993322761132
0.7 24989.369400000032 1.0265658661174646
0.7999999999999999 24985.630799999966 1.0445010015992113
0.8999999999999999 24981.573000000004 1.069052792837064
0.9999999999999999 24977.332799999986 1.0806164406904326
1.0999999999999999 24972.8802 1.1854844298138716
1.1999999999999997 24968.040599999986 1.2959672724141618
1.2999999999999996 24963.115500000054 1.3750274362524981
1.3999999999999995 24957.78540000005 1.5987629226621012
1.4999999999999993 24952.55969999999 1.6641801000498733
1.5999999999999992 24947.081700000035 1.6908678671435464
1.699999999999999 24941.395200000006 1.8871243197505054
1.799999999999999 24935.58570000004 1.9849850567875005
1.8999999999999988 24929.564400000036 2.1172329383677098
1.9999999999999987 24923.367300000074 2.106684321112834
2.0999999999999988 24917.196600000058 2.3911306835761157
2.199999999999999 24910.965600000032 2.4454645646440603
2.299999999999999 24904.41750000007 2.6082919577625128
2.399999999999999 24897.87210000004 2.7506649646473127
2.499999999999999 24891.30960000005 2.8842376231260904
2.599999999999999 24884.510100000065 2.969094729627945
2.6999999999999993 24877.624200000082 3.038826883654467
2.7999999999999994 24870.97290000006 3.195829926468401
2.8999999999999995 24863.91870000009 3.510108427265907
2.9999999999999996 24856.80960000008 3.7164956854772386
3.0999999999999996 24849.858600000094 3.79922889283753
3.1999999999999997 24842.57940000008 3.919073203547853
3.3 24835.657800000055 4.076800149559171
3.4 24828.6552000001 4.347476683491326
3.5 24821.390400000135 4.3158306540249605
3.6 24814.37670000013 4.577777097362698
3.7 24806.72790000013 4.702063482236131
3.8000000000000003 24799.635300000115 4.885440762247105
3.9000000000000004 24792.10920000012 5.120225783308635
4.0 24785.12340000015 5.546201654535864
