# Rounds: 5000, repetitions: 1000
# Good arm ~ N(5.0,0.0), 1 bad arm(s) ~ N(2.8,0.0)
# Observation noise range from 0.5 to 4.0 with step size 0.1

# Observation noise | mean | standard deviation

0.5 24999.667200000036 4.921921318902481
0.6 24999.0974 5.396294398309862
0.7 24998.356000000014 5.0594685711266125
0.7999999999999999 24998.074399999994 4.646406539868169
0.8999999999999999 24997.264800000004 4.619031978284562
0.9999999999999999 24996.488199999952 4.4849766750539555
1.0999999999999999 24995.64779999997 3.813688421906275
1.1999999999999997 24994.736999999994 3.5319095947357626
1.2999999999999996 24993.65460000001 3.2960343873635467
1.3999999999999995 24992.504000000015 3.398260168405664
1.4999999999999993 24991.062999999987 3.4415920088755207
1.5999999999999992 24989.811200000004 3.235531366440874
1.699999999999999 24988.207400000003 3.5616443604814148
1.799999999999999 24986.8214 3.1529038746592444
1.8999999999999988 24985.338599999934 2.910976438211858
1.9999999999999987 24983.772199999996 2.675762856993933
2.0999999999999988 24982.181599999993 2.553292137759056
2.199999999999999 24980.42159999999 2.892095720694493
2.299999999999999 24978.399799999996 3.218969046406498
2.399999999999999 24976.75199999997 3.0423003782651046
2.499999999999999 24974.68619999998 2.847988869465855
2.599999999999999 24972.866799999993 2.86377005692497
2.6999999999999993 24970.790000000015 3.2074956006252076
2.7999999999999994 24968.72859999999 3.1850096273525756
2.8999999999999995 24966.539600000007 3.271931750110382
2.9999999999999996 24964.467199999996 3.1989682020238237
3.0999999999999996 24962.234199999984 3.147096213110819
3.1999999999999997 24959.900000000005 3.5176318360136376
3.3 24957.60100000001 3.4662795752935818
3.4 24955.517600000003 3.523092735428042
3.5 24953.049200000005 3.492061547833481
3.6 24950.71280000001 3.6094187986526483
3.7 24948.154200000015 3.925790900468128
3.8000000000000003 24945.591200000013 4.0117947426383695
3.9000000000000004 24942.957800000015 4.175482464795885
4.0 24940.441 4.103725083331621
