# Rounds: 5000, repetitions: 1000
# Good arm ~ N(5.0,0.0), 1 bad arm(s) ~ N(3.7,0.0)
# Observation noise range from 0.5 to 4.0 with step size 0.1

# Observation noise | mean | standard deviation

0.5 24998.988799999996 5.561649620976572
0.6 24998.000799999973 5.187385500261715
0.7 24997.36640000001 4.800372341247567
0.7999999999999999 24996.31990000002 4.444090900728063
0.8999999999999999 24995.135600000027 4.1953299552520145
0.9999999999999999 24993.901900000023 3.7291786177609905
1.0999999999999999 24992.390000000018 3.7642541903556546
1.1999999999999997 24990.95739999999 3.1802955082066124
1.2999999999999996 24989.232299999992 2.798170199695993
1.3999999999999995 24987.31480000002 2.931858925111848
1.4999999999999993 24985.466200000054 2.8894716829563913
1.5999999999999992 24983.401799999992 2.8355982397682475
1.699999999999999 24981.237299999975 2.376014342160745
1.799999999999999 24978.959700000007 2.910098724198901
1.8999999999999988 24976.673 2.655334593191779
1.9999999999999987 24974.278400000007 2.5060993543697374
2.0999999999999988 24971.886400000018 2.627576678081514
2.199999999999999 24969.069299999992 2.715426495239701
2.299999999999999 24966.587600000024 2.599901099219608
2.399999999999999 24963.992800000015 2.56728243461761
2.499999999999999 24961.189999999995 2.645153461868394
2.599999999999999 24958.194800000016 2.765827681320801
2.6999999999999993 24955.081299999998 2.931459323231562
2.7999999999999994 24952.301900000024 2.931122288111697
2.8999999999999995 24949.154600000013 3.187054463945214
2.9999999999999996 24946.160699999993 3.117461158390059
3.0999999999999996 24942.805400000023 3.3809498164950673
3.1999999999999997 24939.608699999964 3.2966805141548465
3.3 24936.5537 3.5057776293972256
3.4 24933.07360000003 3.651659575816722
3.5 24929.558400000016 3.6877457760676533
3.6 24926.23690000002 3.8505473773347725
3.7 24922.924499999972 3.960640911067381
3.8000000000000003 24919.09990000002 4.1161161794094845
3.9000000000000004 24915.557400000005 4.152477369992883
4.0 24911.69639999999 4.258516408562598
