# Rounds: 5000, repetitions: 1000
# Good arm ~ N(5.0,0.0), 1 bad arm(s) ~ N(2.0,0.0)
# Observation noise range from 0.5 to 4.0 with step size 0.1

# Observation noise | mean | standard deviation

0.5 24999.638999999996 4.30757869739301
0.6 24999.425999999996 4.427428839193954
0.7 24999.60299999997 4.118294713998885
0.7999999999999999 24998.82000000001 4.528587871302518
0.8999999999999999 24998.03099999998 4.111805679497191
0.9999999999999999 24997.400999999958 3.7715279958424195
1.0999999999999999 24996.94499999999 3.96808779145836
1.1999999999999997 24996.114000000034 3.9416418584824404
1.2999999999999996 24995.157 3.5080846138110022
1.3999999999999995 24994.397999999997 3.1001947047253724
1.4999999999999993 24993.368999999955 3.5765389178129796
1.5999999999999992 24992.204999999976 3.4258884558186624
1.699999999999999 24991.30500000001 2.8312525480767037
1.799999999999999 24990.105 3.190321794608355
1.8999999999999988 24988.838999999993 3.08619565219114
1.9999999999999987 24987.513000000024 2.940489326196851
2.0999999999999988 24986.028 3.068327008425042
2.199999999999999 24984.828000000027 2.7734650003394887
2.299999999999999 24983.40900000001 2.7512339573885938
2.399999999999999 24981.924000000017 2.8302357206130635
2.499999999999999 24980.291999999987 3.049596044730503
2.599999999999999 24978.768000000007 2.923135426339468
2.6999999999999993 24976.989 3.209545167181798
2.7999999999999994 24975.42600000001 3.1677371353315524
2.8999999999999995 24973.599000000006 3.222822611560518
2.9999999999999996 24971.987999999972 3.1336361747458414
3.0999999999999996 24970.15799999997 3.2838726862988716
3.1999999999999997 24968.108999999975 3.506481771578832
3.3 24966.31199999996 3.483790004118049
3.4 24964.674000000014 3.5471546775276788
3.5 24962.298 3.7238505693788135
3.6 24960.414000000022 3.891496851822898
3.7 24958.346999999998 3.8966363410992084
3.8000000000000003 24956.19599999997 4.144002504434174
3.9000000000000004 24954.192000000006 3.9545890778657626
4.0 24951.963000000018 4.064745152300787
