# Rounds: 5000, repetitions: 1000
# Good arm ~ N(5.0,0.0), 1 bad arm(s) ~ N(4.8,0.0)
# Observation noise range from 0.5 to 4.0 with step size 0.1

# Observation noise | mean | standard deviation

0.5 24993.18459999999 0.6397281392061553
0.6 24989.144199999988 0.6432885668042442
0.7 24984.725599999994 0.7942641220001476
0.7999999999999999 24979.988399999966 0.8492506500841647
0.8999999999999999 24974.84079999999 0.9594038856594069
0.9999999999999999 24969.44259999999 1.032284287807242
1.0999999999999999 24963.762800000004 1.1741868994664941
1.1999999999999997 24957.84139999999 1.280079936819656
1.2999999999999996 24951.76839999995 1.4143414728438242
1.3999999999999995 24945.38999999996 1.5823538933655135
1.4999999999999993 24938.95999999995 1.6199210302200788
1.5999999999999992 24932.418599999928 1.7487458798116913
1.699999999999999 24925.540399999918 1.8549093046656808
1.799999999999999 24918.701799999897 1.9602855606994616
1.8999999999999988 24911.909399999913 2.203516990434879
1.9999999999999987 24904.601799999924 2.3219449149789186
2.0999999999999988 24897.565799999906 2.4139713373666893
2.199999999999999 24890.38499999989 2.5180459796364487
2.299999999999999 24883.14919999988 2.697238301386437
2.399999999999999 24876.007399999824 2.7950308473168697
2.499999999999999 24868.53399999986 2.9959806240890243
2.599999999999999 24861.27599999986 3.137257781311621
2.6999999999999993 24854.195199999842 3.2182377186949633
2.7999999999999994 24846.912599999814 3.2562746451405586
2.8999999999999995 24839.717599999807 3.6208066063379434
2.9999999999999996 24832.5097999998 3.7159699127435077
3.0999999999999996 24825.167599999757 3.9203468417203915
3.1999999999999997 24817.975799999796 4.11680488272984
3.3 24811.025599999775 4.410641495115179
3.4 24804.037199999755 4.316263000133476
3.5 24797.008999999733 4.672073123069249
3.6 24789.885399999766 4.6066612821230155
3.7 24783.314999999744 4.611255650982109
3.8000000000000003 24776.503599999716 4.980030898277059
3.9000000000000004 24769.635399999683 4.82321575821452
4.0 24762.966599999643 5.083011060531878
