# Rounds: 5000, repetitions: 1000
# Good arm ~ N(5.0,0.0), 1 bad arm(s) ~ N(0.9,0.0)
# Observation noise range from 0.5 to 4.0 with step size 0.1

# Observation noise | mean | standard deviation

0.5 24999.350199999986 3.0397170657552897
0.6 24999.45269999997 3.026610824517572
0.7 24999.12059999999 3.396647295916552
0.7999999999999999 24999.251800000002 3.267242205842144
0.8999999999999999 24998.98939999998 3.6709213153250544
0.9999999999999999 24998.75159999999 3.8729623387379095
1.0999999999999999 24997.919299999987 3.8051276596864567
1.1999999999999997 24996.779499999964 3.3450589186399076
1.2999999999999996 24996.201399999987 2.596582423163289
1.3999999999999995 24995.54949999996 3.150778817555494
1.4999999999999993 24995.094399999998 3.206282721297033
1.5999999999999992 24994.253900000014 3.111505464603133
1.699999999999999 24993.13459999999 2.9545138334404637
1.799999999999999 24992.04399999998 2.6406508737500225
1.8999999999999988 24991.113300000005 2.9444359074045976
1.9999999999999987 24990.096500000007 2.9744116855062464
2.0999999999999988 24989.010000000006 3.0860952648913798
2.199999999999999 24987.894800000002 2.9133693004286534
2.299999999999999 24986.504899999978 3.3170331169127842
2.399999999999999 24985.451200000007 2.9980805604657914
2.499999999999999 24984.102299999988 3.176352298457936
2.599999999999999 24982.741100000014 3.0668397897987334
2.6999999999999993 24981.322500000013 3.2152731970595347
2.7999999999999994 24980.117100000003 3.151483688588318
2.8999999999999995 24978.747700000004 3.2367006257827287
2.9999999999999996 24977.18149999999 3.3746074920986926
3.0999999999999996 24975.77109999999 3.4475760427544153
3.1999999999999997 24974.180299999993 3.381919468185585
3.3 24972.605899999995 3.616323130333441
3.4 24970.68710000001 3.5591981514774003
3.5 24969.055299999985 3.7116449477577675
3.6 24967.575200000014 3.8907174971513063
3.7 24965.6605 4.037917102234688
3.8000000000000003 24964.106600000032 3.95017978835823
3.9000000000000004 24962.343600000015 4.268467975615223
4.0 24960.228000000014 4.375179790384958
