# Rounds: 5000, repetitions: 1000
# Good arm ~ N(5.0,0.0), 1 bad arm(s) ~ N(1.0,0.0)
# Observation noise range from 0.5 to 4.0 with step size 0.1

# Observation noise | mean | standard deviation

0.5 24999.40399999999 3.343046508794033
0.6 24999.492000000002 3.2533860085333295
0.7 24999.284000000036 3.6568725321942073
0.7999999999999999 24999.099999999988 3.394336683583667
0.8999999999999999 24999.211999999978 3.555234970532256
0.9999999999999999 24998.871999999992 3.4819161017663682
1.0999999999999999 24998.007999999973 3.462358144953248
1.1999999999999997 24996.812000000016 3.198575759128879
1.2999999999999996 24996.06400000001 2.764696646568607
1.3999999999999995 24995.620000000014 3.0739305537128305
1.4999999999999993 24995.06400000001 3.0101436784587228
1.5999999999999992 24994.068000000017 3.294575880174904
1.699999999999999 24993.099999999988 2.892467176368014
1.799999999999999 24992.024000000023 2.859300543769353
1.8999999999999988 24990.959999999995 2.9351345820958676
1.9999999999999987 24990.244000000013 2.8699652786576593
2.0999999999999988 24988.71200000005 3.0341823053768837
2.199999999999999 24987.715999999986 2.8297263739364453
2.299999999999999 24986.472000000012 3.2180073914724874
2.399999999999999 24984.956 2.9703344739081348
2.499999999999999 24983.943999999978 3.0222504856477213
2.599999999999999 24982.395999999964 3.0457282315499388
2.6999999999999993 24981.228000000017 3.057673194663794
2.7999999999999994 24979.872000000047 3.106326651410812
2.8999999999999995 24978.20399999998 3.2275069017432894
2.9999999999999996 24976.83199999998 3.2909886974292104
3.0999999999999996 24975.188000000024 3.3811370998656853
3.1999999999999997 24973.83200000004 3.383374531916786
3.3 24972.052 3.6080901200377986
3.4 24970.512000000017 3.527931731525162
3.5 24968.715999999993 3.8717353130520364
3.6 24967.02799999999 3.6808646762364132
3.7 24965.224000000002 4.210409903032174
3.8000000000000003 24963.463999999974 3.9263367303531616
3.9000000000000004 24961.479999999992 4.2118095089093845
4.0 24959.976 4.34814102006021
