# Rounds: 5000, repetitions: 1000
# Good arm ~ N(5.0,0.0), 1 bad arm(s) ~ N(0.7,0.0)
# Observation noise range from 0.5 to 4.0 with step size 0.1

# Observation noise | mean | standard deviation

0.5 24999.431499999984 2.8341189071704735
0.6 24999.332599999994 3.026452817517308
0.7 24999.35409999999 2.9589015340645526
0.7999999999999999 24999.113300000015 3.3347614223127833
0.8999999999999999 24999.023000000012 3.4468263100442655
0.9999999999999999 24998.808000000005 3.2944482678274887
1.0999999999999999 24998.27480000001 3.7944489458687958
1.1999999999999997 24997.427700000015 3.45749287301775
1.2999999999999996 24996.253799999977 2.8629324026152094
1.3999999999999995 24995.539999999957 2.8079573758566614
1.4999999999999993 24995.170199999997 2.9625679348789005
1.5999999999999992 24994.572500000006 2.944303427413254
1.699999999999999 24993.467399999998 3.345945694807015
1.799999999999999 24992.396699999987 3.067041873835222
1.8999999999999988 24991.498000000014 2.532063851356736
1.9999999999999987 24990.37139999999 3.0249847227001703
2.0999999999999988 24989.627500000006 2.9443034274117617
2.199999999999999 24988.30309999996 3.0762971238146615
2.299999999999999 24986.91420000001 2.966813162357554
2.399999999999999 24985.873600000043 2.7857752212952036
2.499999999999999 24984.575 3.0768656295165906
2.599999999999999 24983.396799999984 3.046409422643021
2.6999999999999993 24982.119700000007 3.1141129731606716
2.7999999999999994 24980.61039999997 3.1095242370784764
2.8999999999999995 24979.30750000003 3.174203729963924
2.9999999999999996 24977.806799999995 3.401214786222695
3.0999999999999996 24976.245900000013 3.4712552200611535
3.1999999999999997 24974.943000000017 3.5837206997830906
3.3 24973.42510000002 3.5874656653271133
3.4 24971.498699999982 3.6639559062417626
3.5 24970.200100000005 3.5848851294556745
3.6 24968.518799999973 3.730101904803659
3.7 24966.648300000015 3.9393216884843607
3.8000000000000003 24964.91539999997 4.180655537199611
3.9000000000000004 24963.049199999994 4.09148868257466
4.0 24961.346400000002 4.234716030604173
