# Rounds: 100, repetitions: 1000
# Good arm ~ N(5.0,0.0), 4 bad arm(s) ~ N(0.6,0.0)
# Observation noise range from 0.5 to 4.0 with step size 0.1

# Observation noise | mean | standard deviation

0.5 486.57279999999986 2.5618241749001744
0.6 486.43200000000013 2.5196596366741058
0.7 486.1504000000002 3.27466995333931
0.7999999999999999 485.95239999999995 3.551240001118674
0.8999999999999999 485.6927999999997 3.8414248274181286
0.9999999999999999 485.8248000000002 3.740151560257084
1.0999999999999999 485.1691999999996 4.7248381406620945
1.1999999999999997 485.0283999999999 4.618073195613097
1.2999999999999996 484.36839999999995 4.882831502671716
1.3999999999999995 483.7919999999999 4.971954981326368
1.4999999999999993 482.3444000000002 5.754603731283668
1.5999999999999992 481.3676000000004 5.518329656898186
1.699999999999999 479.1544 6.440052400013086
1.799999999999999 477.8520000000002 6.698149087710777
1.8999999999999988 475.43199999999973 6.484250265181154
1.9999999999999987 473.30680000000007 6.88742843377921
2.0999999999999988 471.49840000000023 6.88069046981051
2.199999999999999 468.97279999999967 7.15361967359426
2.299999999999999 467.0720000000002 7.216925939762693
2.399999999999999 465.3472000000008 7.42375675277175
2.499999999999999 462.7071999999999 7.286216927673549
2.599999999999999 461.0703999999999 7.986986653037317
2.6999999999999993 458.7648 8.124341566298524
2.7999999999999994 455.6012000000001 9.10678274979983
2.8999999999999995 453.37040000000036 8.77490756890595
2.9999999999999996 451.22759999999977 8.985409051112553
3.0999999999999996 448.1784000000002 9.871738684986818
3.1999999999999997 446.0488000000001 9.227413707194682
3.3 442.8323999999999 10.313146524278185
3.4 440.0076 10.671647778403527
3.5 437.4687999999999 10.521995007551544
3.6 433.9048000000001 11.032795635718966
3.7 431.1019999999998 11.167176089854665
3.8000000000000003 427.95160000000044 11.84665018309226
3.9000000000000004 425.52720000000005 12.03513625451182
4.0 422.45600000000013 12.428250295411873
