# Rounds: 100, repetitions: 1000
# Good arm ~ N(5.0,0.0), 4 bad arm(s) ~ N(4.6,0.0)
# Observation noise range from 0.5 to 4.0 with step size 0.1

# Observation noise | mean | standard deviation

0.5 493.3436000000002 3.2890784540775537
0.6 491.1959999999999 3.133950485512786
0.7 489.25080000000037 3.0548111613046367
0.7999999999999999 487.50880000000006 3.0829965013647795
0.8999999999999999 485.84920000000034 3.2618121924443835
0.9999999999999999 484.4648 3.3813421055010666
1.0999999999999999 483.2708 3.1822498446969854
1.1999999999999997 482.4288000000009 3.142904454228344
1.2999999999999996 481.4396000000004 3.309856037199631
1.3999999999999995 480.45440000000053 3.4551785625201314
1.4999999999999993 479.77680000000026 3.283949769117364
1.5999999999999992 479.0336000000011 3.3480502505906777
1.699999999999999 478.7128000000003 3.30004946727869
1.799999999999999 477.9120000000005 3.4029628496585063
1.8999999999999988 477.7372000000005 3.2381695295184545
1.9999999999999987 477.332400000001 3.2159870666426285
2.0999999999999988 477.0188000000006 3.3914876896059276
2.199999999999999 476.45520000000073 3.316617691702304
2.299999999999999 476.31080000000054 3.3524322755518767
2.399999999999999 475.9804000000004 3.3681449256586338
2.499999999999999 475.69 3.3391031145517767
2.599999999999999 475.41040000000027 3.307341885918371
2.6999999999999993 475.40160000000014 3.1509754181976586
2.7999999999999994 475.0688000000003 3.2754962120929405
2.8999999999999995 474.93680000000023 3.2959838090119633
2.9999999999999996 474.6664000000004 3.160731127644522
3.0999999999999996 474.39960000000036 3.361252424001735
3.1999999999999997 474.2408000000008 3.349930954123853
3.3 474.21080000000114 3.133448876535504
3.4 474.1020000000003 3.134795518521532
3.5 474.0068000000006 3.2731800236875483
3.6 473.6344000000005 3.2520935953247814
3.7 473.59400000000005 3.1867034815117012
3.8000000000000003 473.4192000000002 3.119705743162908
3.9000000000000004 473.31720000000087 3.1952956160696275
4.0 473.11280000000056 3.0974683970091115
