# Rounds: 100, repetitions: 1000
# Good arm ~ N(5.0,0.0), 4 bad arm(s) ~ N(4.7,0.0)
# Observation noise range from 0.5 to 4.0 with step size 0.1

# Observation noise | mean | standard deviation

0.5 493.50459999999924 2.3074278023511763
0.6 491.74359999999984 2.293599712164219
0.7 490.18869999999964 2.2557905268222576
0.7999999999999999 488.8371999999997 2.2293016722610934
0.8999999999999999 487.6830999999997 2.3017868304021514
0.9999999999999999 486.7848999999995 2.3226831137387225
1.0999999999999999 486.08469999999943 2.324650491990156
1.1999999999999997 485.52129999999994 2.3429010852990917
1.2999999999999996 485.0175999999992 2.2568082380706604
1.3999999999999995 484.4664999999993 2.3389567051291604
1.4999999999999993 484.07560000000007 2.1938590788056156
1.5999999999999992 483.69129999999956 2.359686935259128
1.699999999999999 483.65829999999914 2.3682144222071058
1.799999999999999 483.2274999999992 2.2985380194869993
1.8999999999999988 482.9349999999998 2.341469085313255
1.9999999999999987 482.76609999999926 2.4011677151745623
2.0999999999999988 482.45829999999927 2.41582021212207
2.199999999999999 482.42019999999906 2.3021972270142856
2.299999999999999 482.21619999999956 2.3171332863404452
2.399999999999999 482.0520999999996 2.2404542452871974
2.499999999999999 482.01039999999955 2.2791371846175705
2.599999999999999 481.71939999999967 2.3488850335640317
2.6999999999999993 481.6668999999994 2.409389870807503
2.7999999999999994 481.3842999999994 2.310610835349098
2.8999999999999995 481.4847999999994 2.3489799204477877
2.9999999999999996 481.24299999999937 2.2673932327834723
3.0999999999999996 481.0527999999997 2.2346780407804037
3.1999999999999997 481.1472999999998 2.3016625209531845
3.3 481.0314999999995 2.2167254276571615
3.4 481.0479999999995 2.2727211138328216
3.5 480.8427999999998 2.145042976112504
3.6 480.7638999999993 2.223697736119245
3.7 480.78520000000003 2.234281310169602
3.8000000000000003 480.72099999999955 2.268330735215777
3.9000000000000004 480.5649999999991 2.2197617760342117
4.0 480.4692999999991 2.1646970742862908
