# Rounds: 100, repetitions: 1000
# Good arm ~ N(5.0,0.0), 4 bad arm(s) ~ N(2.0,0.0)
# Observation noise range from 0.5 to 4.0 with step size 0.1

# Observation noise | mean | standard deviation

0.5 490.7230000000001 4.513162930765926
0.6 490.27900000000017 4.890099392862291
0.7 490.32700000000006 4.8053264365870145
0.7999999999999999 490.0029999999996 5.270177014651964
0.8999999999999999 489.78400000000016 5.2219357150976915
0.9999999999999999 489.11499999999944 5.855600999305086
1.0999999999999999 488.07700000000006 5.4177876871858945
1.1999999999999997 486.3130000000002 5.944608428598913
1.2999999999999996 485.0080000000005 6.115335913368399
1.3999999999999995 483.0219999999997 6.60584235000757
1.4999999999999993 481.77399999999983 6.245312476404013
1.5999999999999992 479.7550000000003 6.640562632192555
1.699999999999999 478.1499999999998 6.291349702653716
1.799999999999999 476.0320000000002 6.557894630289661
1.8999999999999988 473.9830000000002 6.949028709107539
1.9999999999999987 471.9700000000001 7.078644447011518
2.0999999999999988 469.7979999999999 7.58094101458828
2.199999999999999 468.53800000000035 7.169934725223395
2.299999999999999 466.05400000000026 7.197144078235658
2.399999999999999 464.3110000000006 7.495362530222255
2.499999999999999 461.3110000000003 7.913969289168927
2.599999999999999 459.0100000000002 8.490110834493368
2.6999999999999993 456.76599999999996 8.436255947659154
2.7999999999999994 454.6599999999998 8.79168321163208
2.8999999999999995 451.8429999999998 9.544603210739073
2.9999999999999996 449.7789999999994 9.054067325524748
3.0999999999999996 446.5840000000001 9.909144016267701
3.1999999999999997 443.9680000000003 10.262177560746457
3.3 442.4499999999997 10.07874402299618
3.4 438.613 11.254772361131943
3.5 435.99700000000024 11.379212515700608
3.6 433.2339999999997 11.43170713095501
3.7 431.0439999999994 12.088597859065352
3.8000000000000003 427.4139999999999 12.373670098710056
3.9000000000000004 425.0409999999998 12.844387774327668
4.0 421.51899999999983 13.815734273411387
