# Rounds: 100, repetitions: 1000
# Good arm ~ N(5.0,1.0), 4 bad arm(s) ~ N(0.7,1.0)
# Observation noise range from 0.5 to 4.0 with step size 0.1

# Observation noise | mean | standard deviation

0.5 486.20219037025583 11.088928703598805
0.6 485.5644533861212 10.021070451717888
0.7 486.0063179799813 10.968954499493437
0.7999999999999999 485.5920326026446 10.496078958889253
0.8999999999999999 485.49807515350216 10.754813492150076
0.9999999999999999 484.6001879960454 10.9612209170867
1.0999999999999999 484.493605856758 11.576862751118933
1.1999999999999997 483.927156623924 11.622967009176465
1.2999999999999996 482.3860427849022 11.273551863798138
1.3999999999999995 482.45357188426476 11.278052468606305
1.4999999999999993 480.1215696804428 12.079210873245465
1.5999999999999992 479.2555222845536 12.991705591884825
1.699999999999999 477.2585424831391 12.2503416294779
1.799999999999999 475.40321216785384 12.42496200900153
1.8999999999999988 474.4615414521776 12.859910723577674
1.9999999999999987 471.94802888340763 13.198263013869076
2.0999999999999988 469.38232890605343 13.763420904218016
2.199999999999999 468.5633787911758 13.49562157145541
2.299999999999999 466.4653610711893 14.246805636030837
2.399999999999999 464.4994522346058 14.217826925010526
2.499999999999999 461.45787048252396 14.201690516590117
2.599999999999999 459.7960355651301 13.975339431333813
2.6999999999999993 457.39878633890555 14.663498561001402
2.7999999999999994 454.03157493156783 15.190686902790114
2.8999999999999995 451.6212872752063 14.469078666567151
2.9999999999999996 449.2399305261014 15.499068243137058
3.0999999999999996 446.59159586773274 15.623020712949357
3.1999999999999997 444.27902026143596 15.851070558616208
3.3 442.0328623041471 15.856232210263826
3.4 439.48886484824396 16.96091723729633
3.5 435.1272528410614 16.767064291632725
3.6 432.78251570467376 17.288132489050433
3.7 431.19937473230965 17.85456381965851
3.8000000000000003 427.1717238355519 17.983965348367093
3.9000000000000004 424.8872163814569 18.7098964670616
4.0 421.64941411729484 17.991447551761897
