# Rounds: 100, repetitions: 1000
# Good arm ~ N(5.0,0.0), 4 bad arm(s) ~ N(3.2,0.0)
# Observation noise range from 0.5 to 4.0 with step size 0.1

# Observation noise | mean | standard deviation

0.5 493.15959999999984 6.955748002211591
0.6 493.18660000000006 6.269625877885267
0.7 492.04000000000013 6.301608546257884
0.7999999999999999 490.8177999999996 5.9762663025436575
0.8999999999999999 489.5542000000001 5.832093592842567
0.9999999999999999 487.68039999999974 6.205955988381643
1.0999999999999999 485.8210000000002 6.436544733636828
1.1999999999999997 484.3558 5.984043376775871
1.2999999999999996 482.64219999999983 5.884774399221236
1.3999999999999995 480.9358000000002 6.3775380321368
1.4999999999999993 478.94139999999936 6.599132866869298
1.5999999999999992 476.9199999999996 6.133646682164008
1.699999999999999 474.7347999999997 7.2043689447370545
1.799999999999999 472.70799999999963 7.001868476496997
1.8999999999999988 470.71899999999965 7.2119214368163265
1.9999999999999987 468.92980000000017 7.2282057883626125
2.0999999999999988 466.46920000000017 8.016570136707871
2.199999999999999 464.5809999999998 8.386857479317165
2.299999999999999 462.2085999999999 8.09593912219392
2.399999999999999 459.9261999999997 8.593017718677972
2.499999999999999 457.73020000000076 8.432923701905667
2.599999999999999 455.86899999999963 9.01457828307135
2.6999999999999993 453.9663999999997 9.42958472617475
2.7999999999999994 451.1962000000004 9.932602990262014
2.8999999999999995 448.90119999999973 10.178585469610308
2.9999999999999996 446.4729999999997 10.153275333605418
3.0999999999999996 444.5704000000004 10.485328127719544
3.1999999999999997 441.87039999999996 11.191524206025479
3.3 439.7625999999997 11.26390326471057
3.4 437.64760000000007 11.736744242139979
3.5 435.36699999999973 11.985366077012452
3.6 433.4265999999999 11.79814428834673
3.7 431.6446000000001 12.575650990618275
3.8000000000000003 428.97699999999986 12.696512609076265
3.9000000000000004 426.8745999999999 12.738440355973825
4.0 425.40220000000005 12.924666423632093
