# Rounds: 100, repetitions: 1000
# Good arm ~ N(5.0,0.0), 4 bad arm(s) ~ N(2.6,0.0)
# Observation noise range from 0.5 to 4.0 with step size 0.1

# Observation noise | mean | standard deviation

0.5 492.16959999999943 5.543750446133817
0.6 491.7423999999999 5.564066955122065
0.7 491.4328000000003 6.043489714389197
0.7999999999999999 490.8928000000006 6.347131181426335
0.8999999999999999 490.1536000000001 6.3472619903998755
0.9999999999999999 488.98720000000037 6.028121964129009
1.0999999999999999 487.6287999999999 5.67789124666975
1.1999999999999997 486.0256000000001 5.963088382965913
1.2999999999999996 484.01680000000044 6.303301465848634
1.3999999999999995 482.6007999999999 5.891565998095056
1.4999999999999993 480.7168 5.827589429477528
1.5999999999999992 478.78719999999953 5.911986785146554
1.699999999999999 476.79280000000017 7.241120215959805
1.799999999999999 475.01439999999985 6.926107391861859
1.8999999999999988 472.7799999999999 7.003268220321536
1.9999999999999987 471.1504000000001 7.079750186461601
2.0999999999999988 469.00959999999986 7.020375596327716
2.199999999999999 466.3240000000003 7.499967567497469
2.299999999999999 464.5600000000001 7.952108904940618
2.399999999999999 462.64720000000005 7.64939510062103
2.499999999999999 460.0959999999996 8.290196098485948
2.599999999999999 457.13920000000036 9.114016054882086
2.6999999999999993 454.89279999999974 8.90425257244391
2.7999999999999994 453.0087999999997 9.187357078621146
2.8999999999999995 450.2488000000002 9.749594512242702
2.9999999999999996 448.2808000000004 9.840328420506257
3.0999999999999996 445.61440000000016 10.354290123613715
3.1999999999999997 443.4496 10.4601680175299
3.3 440.0007999999992 11.254464995829073
3.4 438.2008000000003 11.770566069037887
3.5 436.41999999999996 11.325519298795433
3.6 433.0192000000004 12.211690986786286
3.7 431.1592 11.834464496119383
3.8000000000000003 427.8568 12.513125591636674
3.9000000000000004 424.8999999999998 13.045920283216365
4.0 422.8984000000001 13.477416599563872
