# Rounds: 100, repetitions: 1000
# Good arm ~ N(5.0,0.0), 4 bad arm(s) ~ N(1.8,0.0)
# Observation noise range from 0.5 to 4.0 with step size 0.1

# Observation noise | mean | standard deviation

0.5 490.1839999999993 4.12634107784254
0.6 490.1071999999999 4.075330229131945
0.7 489.83199999999994 4.6708278316196425
0.7999999999999999 489.3711999999994 4.817898162342455
0.8999999999999999 489.26240000000007 5.226829439151988
0.9999999999999999 488.7248000000004 5.284682850733127
1.0999999999999999 487.6847999999999 5.63525376935634
1.1999999999999997 486.84960000000046 5.64464718843275
1.2999999999999996 485.1344000000002 6.1922112464062495
1.3999999999999995 483.4991999999998 6.463777516265536
1.4999999999999993 481.8415999999994 6.423046392870368
1.5999999999999992 480.18400000000014 6.182469322764741
1.699999999999999 478.43679999999983 6.282320694879685
1.799999999999999 476.8464000000001 6.439275682195253
1.8999999999999988 474.7311999999993 6.8519643881135055
1.9999999999999987 472.6064000000001 7.059418845374927
2.0999999999999988 470.6575999999999 7.390205503054508
2.199999999999999 468.9647999999999 7.1753582995364855
2.299999999999999 466.53280000000035 7.481450143939787
2.399999999999999 463.7680000000005 7.690360046034131
2.499999999999999 462.05920000000003 7.8262216365947825
2.599999999999999 458.78880000000004 8.629202610768738
2.6999999999999993 456.9808000000001 8.442740741680499
2.7999999999999994 455.0640000000001 8.90193397124626
2.8999999999999995 452.2959999999999 9.10578383772091
2.9999999999999996 449.79040000000043 9.482897932235348
3.0999999999999996 446.75679999999994 10.166079033871537
3.1999999999999997 444.33759999999967 10.520147325001695
3.3 442.1039999999998 10.347649871244093
3.4 438.9712 10.510834800728672
3.5 436.1167999999999 11.168644339237295
3.6 433.4608000000003 11.342556896791692
3.7 430.5104000000002 11.86957364940369
3.8000000000000003 428.0688000000001 12.746763767582202
3.9000000000000004 424.6576000000004 12.862928794686596
4.0 422.66720000000004 12.315789980461782
