# Rounds: 100, repetitions: 1000
# Good arm ~ N(5.0,1.0), 4 bad arm(s) ~ N(1.8,1.0)
# Observation noise range from 0.5 to 4.0 with step size 0.1

# Observation noise | mean | standard deviation

0.5 489.64072321008314 11.443652715931863
0.6 488.9647892137315 11.15640519664269
0.7 487.9414972448531 11.299642326579285
0.7999999999999999 487.9503617935995 11.500785966012737
0.8999999999999999 487.00687986085376 11.437030824936048
0.9999999999999999 485.8181100535182 11.68218304348564
1.0999999999999999 485.1590093915592 11.789601058010273
1.1999999999999997 484.4875131695349 12.178340357254752
1.2999999999999996 482.72190257987074 12.306990387195343
1.3999999999999995 481.0778748906393 12.595301613580101
1.4999999999999993 479.93149078242254 12.974442152911388
1.5999999999999992 478.4266090226607 12.84849021281049
1.699999999999999 477.2300273008488 12.878106884156649
1.799999999999999 475.45638025968543 13.186173839089966
1.8999999999999988 473.5385458994887 13.230666022479037
1.9999999999999987 471.55426471245454 13.742946804094043
2.0999999999999988 468.8702997612718 14.406074686326052
2.199999999999999 467.1333927470752 13.608148446868572
2.299999999999999 464.73220290775083 14.295635302028149
2.399999999999999 462.3865564927494 14.62201234502717
2.499999999999999 460.23258474920345 15.39772297209669
2.599999999999999 458.10110080813075 15.19402428165904
2.6999999999999993 455.64687534848855 15.434366576687275
2.7999999999999994 452.81994487438226 15.256015660887732
2.8999999999999995 450.2940996224839 16.490168584157235
2.9999999999999996 447.5853695994942 16.4242984883328
3.0999999999999996 445.25698090334436 16.61833640887089
3.1999999999999997 442.25792567733004 17.332090683825328
3.3 440.70930311931613 17.103086558815765
3.4 437.32154150439726 17.60721829252157
3.5 434.78063175840066 18.394380864533034
3.6 432.1118742175659 18.4772865526309
3.7 429.85327867306086 18.313623126924227
3.8000000000000003 427.03605483397274 18.794642017466252
3.9000000000000004 424.0647896840297 18.667810036903738
4.0 420.66886378297994 20.70647509925822
