# Rounds: 100, repetitions: 1000
# Good arm ~ N(5.0,0.0), 4 bad arm(s) ~ N(3.9,0.0)
# Observation noise range from 0.5 to 4.0 with step size 0.1

# Observation noise | mean | standard deviation

0.5 494.36189999999954 5.756915881830353
0.6 492.8725000000002 5.695959770548531
0.7 491.08499999999975 6.1413770045089615
0.7999999999999999 489.3701000000004 5.656799038799687
0.8999999999999999 487.90709999999973 5.48914112227587
0.9999999999999999 485.9039999999997 5.295511915428601
1.0999999999999999 483.52359999999993 6.164597740753635
1.1999999999999997 481.6030000000001 5.716837695197678
1.2999999999999996 479.8837000000001 5.21956973497031
1.3999999999999995 477.44170000000025 6.423311454385479
1.4999999999999993 476.03479999999996 6.060404067177137
1.5999999999999992 473.2495999999998 7.066485339619325
1.699999999999999 471.2729 6.71246249469913
1.799999999999999 469.6867000000002 6.7236687032326765
1.8999999999999988 467.8144999999999 6.8953655317042974
1.9999999999999987 465.49679999999887 7.438960134850012
2.0999999999999988 464.1206999999994 7.331551893232609
2.199999999999999 461.58079999999967 8.397510913928564
2.299999999999999 459.84939999999955 8.787320219306697
2.399999999999999 458.2401000000003 8.60204726836623
2.499999999999999 456.8167 8.470963837624275
2.599999999999999 455.00719999999956 8.32144907300852
2.6999999999999993 453.3483999999998 8.414718350897129
2.7999999999999994 451.05819999999983 9.07514137360685
2.8999999999999995 450.6379999999994 9.49664689784255
2.9999999999999996 449.5269999999992 8.80241520910673
3.0999999999999996 447.67679999999996 9.443944612811432
3.1999999999999997 446.9936999999993 9.24303218397264
3.3 444.81350000000003 9.704569357597308
3.4 443.2382999999996 10.13076776782324
3.5 442.9357999999998 9.59992379641094
3.6 441.23410000000007 9.68947227990583
3.7 439.7732999999997 9.979679910754706
3.8000000000000003 439.3640999999996 9.665780283996671
3.9000000000000004 437.7778999999996 9.825929497023726
4.0 437.6140000000002 9.384178536601228
