# Rounds: 100, repetitions: 1000
# Good arm ~ N(5.0,0.0), 4 bad arm(s) ~ N(3.5,0.0)
# Observation noise range from 0.5 to 4.0 with step size 0.1

# Observation noise | mean | standard deviation

0.5 494.06349999999975 6.718992678416375
0.6 493.3810000000002 6.36422362447631
0.7 491.55699999999973 6.436200406736528
0.7999999999999999 490.5789999999999 5.7725281360146585
0.8999999999999999 488.5389999999999 5.8800556165783
0.9999999999999999 487.2430000000003 5.522630754491057
1.0999999999999999 484.9435000000005 6.2499295491524824
1.1999999999999997 483.65650000000045 5.805511322158601
1.2999999999999996 481.5984999999998 5.807691195907979
1.3999999999999995 479.5449999999998 6.082595907420866
1.4999999999999993 477.83649999999966 6.1125183542162524
1.5999999999999992 475.6149999999998 6.586551271922021
1.699999999999999 473.51950000000045 6.620135644074517
1.799999999999999 471.19299999999976 6.694854148678066
1.8999999999999988 469.4724999999998 6.970622879867569
1.9999999999999987 466.93300000000005 7.958382175219213
2.0999999999999988 465.2395000000003 7.940084047709095
2.199999999999999 463.03449999999947 7.394067350381778
2.299999999999999 460.807 8.158419627036292
2.399999999999999 458.6320000000001 8.370133519552395
2.499999999999999 456.51099999999997 8.87624169717491
2.599999999999999 454.77399999999994 9.046394931753786
2.6999999999999993 452.79850000000016 9.706666117525478
2.7999999999999994 450.7719999999994 9.785871411339885
2.8999999999999995 448.444 10.289545118164298
2.9999999999999996 446.3514999999999 10.542834016482443
3.0999999999999996 444.53500000000014 10.332305238015937
3.1999999999999997 442.2684999999999 10.82237411714876
3.3 441.1119999999998 10.952758507285694
3.4 438.6985000000002 11.454826965555181
3.5 437.3380000000001 11.35150265879423
3.6 435.28450000000026 11.504353954477844
3.7 433.51000000000005 12.361339033563587
3.8000000000000003 431.7309999999997 11.629246681465542
3.9000000000000004 429.8184999999996 12.076740264053274
4.0 428.60349999999937 12.354945666915434
