# Rounds: 100, repetitions: 1000
# Good arm ~ N(5.0,0.0), 4 bad arm(s) ~ N(2.8,0.0)
# Observation noise range from 0.5 to 4.0 with step size 0.1

# Observation noise | mean | standard deviation

0.5 492.5612000000006 5.523089631635445
0.6 492.29499999999973 6.29621611266142
0.7 491.9627999999999 6.07381159959273
0.7999999999999999 491.17080000000004 6.517713398727172
0.8999999999999999 489.8464000000004 6.531544082995114
0.9999999999999999 488.7882000000003 5.895022650681864
1.0999999999999999 486.84779999999944 6.1181097102313
1.1999999999999997 485.43759999999986 6.209420515889004
1.2999999999999996 483.572 6.514068551150597
1.3999999999999995 481.9835999999999 6.094528227378601
1.4999999999999993 480.0168000000005 6.147050022895907
1.5999999999999992 478.07199999999995 6.48200836411311
1.699999999999999 476.6838000000002 6.666232535414323
1.799999999999999 474.3782000000004 6.916655614159599
1.8999999999999988 472.3915999999999 7.081361106109146
1.9999999999999987 470.3763999999999 7.071447405475652
2.0999999999999988 468.21160000000003 7.277864573674937
2.199999999999999 465.86639999999994 7.63723499693432
2.299999999999999 463.71700000000027 7.939165027969964
2.399999999999999 461.59839999999986 8.154184702848507
2.499999999999999 459.1718000000002 8.164404587124675
2.599999999999999 456.85959999999983 8.912712509908783
2.6999999999999993 454.3252000000003 9.029033636464565
2.7999999999999994 452.6158000000002 8.705702706824965
2.8999999999999995 449.7162 9.74328636493813
2.9999999999999996 447.84840000000014 10.714979618656685
3.0999999999999996 445.19740000000013 10.418326870221286
3.1999999999999997 442.59700000000043 10.82077262121888
3.3 439.6952 11.487162045163812
3.4 437.55459999999977 11.467154593641538
3.5 435.0686000000003 11.419371965922506
3.6 432.9434 12.339519446890144
3.7 430.12300000000045 12.443867599779495
3.8000000000000003 428.5147999999998 12.798458559588394
3.9000000000000004 425.67239999999975 13.040224142463403
4.0 423.3932000000001 12.815844866400333
