# Rounds: 100, repetitions: 1000
# Good arm ~ N(5.0,1.0), 4 bad arm(s) ~ N(2.5,1.0)
# Observation noise range from 0.5 to 4.0 with step size 0.1

# Observation noise | mean | standard deviation

0.5 489.8573772449623 12.44860941543755
0.6 489.1613456242148 12.546609933496676
0.7 489.3176599833586 11.862879310436572
0.7999999999999999 487.58489659561354 11.970166190106026
0.8999999999999999 487.1045965302801 12.226469410799977
0.9999999999999999 485.70891873021117 12.05178430763976
1.0999999999999999 484.77940077236343 12.075330165358833
1.1999999999999997 482.6186432590416 12.959927787217842
1.2999999999999996 481.7772483145783 12.11968657669433
1.3999999999999995 480.3883511889147 12.706307433706883
1.4999999999999993 478.11965883624754 13.735011072225342
1.5999999999999992 476.8934658807081 13.756069677089073
1.699999999999999 475.2143525911203 13.348509335494512
1.799999999999999 472.91087468449274 14.366368907798657
1.8999999999999988 471.55557109378884 13.851390687304098
1.9999999999999987 469.72159519587274 14.091378469329458
2.0999999999999988 466.78554876700355 14.96974606762495
2.199999999999999 464.19927922787406 15.185260721507316
2.299999999999999 462.9797680423727 16.12709557690036
2.399999999999999 460.48343453876066 15.296035504157826
2.499999999999999 457.4823204311199 15.498978029169153
2.599999999999999 456.12784318119867 15.955424119122481
2.6999999999999993 453.9402087045284 16.269269987145652
2.7999999999999994 450.8875741860125 16.304908541035072
2.8999999999999995 448.7417871720888 17.184136234658713
2.9999999999999996 446.5126947199043 16.76178402291753
3.0999999999999996 443.7357858921832 17.01790381911934
3.1999999999999997 440.72955388307395 18.540287027329548
3.3 438.21317892936014 18.59295559781593
3.4 435.566729130171 18.164323480342645
3.5 433.51976117829224 18.22630444322514
3.6 431.2439057398086 18.55562854733575
3.7 427.6518211637662 19.99575620929293
3.8000000000000003 424.97720957858866 20.13025649163403
3.9000000000000004 423.07853804524683 19.709652619228137
4.0 420.7868787151232 19.205570927267452
