# Rounds: 100, repetitions: 1000
# Good arm ~ N(5.0,1.0), 4 bad arm(s) ~ N(0.6,1.0)
# Observation noise range from 0.5 to 4.0 with step size 0.1

# Observation noise | mean | standard deviation

0.5 485.5258091690807 10.556007934860004
0.6 485.2965619896027 10.821821052533615
0.7 485.560843583762 10.952809642832507
0.7999999999999999 485.10090821494947 10.585597420477965
0.8999999999999999 485.4059688016805 11.231317880126868
0.9999999999999999 484.81575515436253 10.871568146149768
1.0999999999999999 484.45461020820284 10.956205851174849
1.1999999999999997 484.0014908652099 10.93223635173753
1.2999999999999996 482.4179874571352 11.728108925079145
1.3999999999999995 481.33806827750516 12.188697337812803
1.4999999999999993 480.1363476316463 11.798986435595065
1.5999999999999992 479.05944597329534 12.306728809586215
1.699999999999999 477.5815883154271 12.57881601117838
1.799999999999999 476.10098683623846 12.532447897313517
1.8999999999999988 474.20566830753756 12.605519327818227
1.9999999999999987 471.65755781416453 13.04829646970239
2.0999999999999988 469.4684660259368 13.14621280937846
2.199999999999999 467.34377390970553 13.68535616302019
2.299999999999999 466.8542635081374 13.914795640376079
2.399999999999999 463.60439652254695 13.133564761799109
2.499999999999999 462.23607836892916 14.233549540085932
2.599999999999999 459.7599841994686 14.48596276635712
2.6999999999999993 458.13983791658507 14.361543284958094
2.7999999999999994 454.91587614492397 14.751738136757183
2.8999999999999995 452.37771411225157 15.09559796430943
2.9999999999999996 448.95902689680247 15.404559432621955
3.0999999999999996 446.6940018118271 15.605476132348613
3.1999999999999997 444.23823187729215 16.519409285706008
3.3 441.24569883042807 16.157451858618913
3.4 439.3787208969256 16.71156951193843
3.5 435.725113336179 16.88504153595136
3.6 433.2523135801234 16.810339673395475
3.7 430.28042693304235 18.135909005342192
3.8000000000000003 427.39158486433826 17.42160637754011
3.9000000000000004 424.2219657322674 18.371997257609948
4.0 420.7282140718474 18.122569359979085
