# Rounds: 100, repetitions: 1000
# Good arm ~ N(5.0,0.0), 4 bad arm(s) ~ N(3.0,0.0)
# Observation noise range from 0.5 to 4.0 with step size 0.1

# Observation noise | mean | standard deviation

0.5 493.15800000000047 5.617347291256853
0.6 493.1900000000003 5.517820796867734
0.7 492.1079999999997 6.033965921742093
0.7999999999999999 491.20000000000005 6.124500755940008
0.8999999999999999 489.8200000000003 5.576261713253309
0.9999999999999999 488.3959999999997 5.812139448169251
1.0999999999999999 486.44799999999964 6.5122734667476845
1.1999999999999997 485.1160000000008 6.11489459728752
1.2999999999999996 483.37200000000024 6.088898971956337
1.3999999999999995 481.7960000000001 5.4615210529862654
1.4999999999999993 479.6380000000006 6.40484019925384
1.5999999999999992 477.5060000000002 6.150918451564573
1.699999999999999 475.9420000000001 6.238233047229936
1.799999999999999 473.4860000000002 7.479019971877318
1.8999999999999988 471.482 7.1104313676621365
1.9999999999999987 469.4940000000001 7.040563438641378
2.0999999999999988 467.5759999999999 7.63456026962329
2.199999999999999 464.9259999999998 7.791484533208752
2.299999999999999 462.7220000000003 8.054787122922322
2.399999999999999 460.8340000000003 8.746024064507075
2.499999999999999 458.5740000000003 9.729809514743486
2.599999999999999 456.31199999999995 8.760559537118793
2.6999999999999993 453.5480000000001 9.630391499852962
2.7999999999999994 451.3779999999999 9.275945189529704
2.8999999999999995 449.1559999999999 9.728221949683423
2.9999999999999996 447.4060000000002 10.325976456964746
3.0999999999999996 444.2419999999994 10.291323887010233
3.1999999999999997 442.0619999999999 10.937082598928107
3.3 439.8339999999999 11.115394549722293
3.4 437.9539999999995 11.507663112479003
3.5 435.0059999999997 11.94900593115355
3.6 432.8799999999997 13.06952227177461
3.7 431.16800000000006 11.760871315259514
3.8000000000000003 428.6379999999995 12.638698219860004
3.9000000000000004 427.52800000000025 12.257547204211086
4.0 422.8520000000001 13.744781373852941
