# Rounds: 100, repetitions: 1000
# Good arm ~ N(5.0,0.0), 4 bad arm(s) ~ N(1.2,0.0)
# Observation noise range from 0.5 to 4.0 with step size 0.1

# Observation noise | mean | standard deviation

0.5 488.4168000000002 3.3523717210590234
0.6 488.2457999999999 3.504600488584178
0.7 488.08620000000036 3.7973345005818224
0.7999999999999999 487.8999999999999 3.994711218313278
0.8999999999999999 487.8163999999999 3.9060092099159385
0.9999999999999999 486.96899999999994 5.185067398204564
1.0999999999999999 487.03359999999986 4.590732606661566
1.1999999999999997 486.3154 5.411684503846239
1.2999999999999996 485.0499999999997 5.6230880412028945
1.3999999999999995 483.81500000000017 6.152006354205319
1.4999999999999993 482.07459999999907 6.67654484678196
1.5999999999999992 480.8700000000001 6.216428555367126
1.699999999999999 478.98139999999995 6.340850133887483
1.799999999999999 477.11560000000026 6.685031509745191
1.8999999999999988 475.1738 6.792753127786643
1.9999999999999987 472.92039999999974 7.305822258916426
2.0999999999999988 471.3206000000003 6.837327305657149
2.199999999999999 469.2799999999999 7.257550002034578
2.299999999999999 466.87839999999943 7.150178913740457
2.399999999999999 464.85679999999957 7.599908708160375
2.499999999999999 463.1657999999999 7.610376349970385
2.599999999999999 460.2549999999995 8.110067089006613
2.6999999999999993 457.6672 8.775776798575599
2.7999999999999994 455.9913999999999 8.540657402616528
2.8999999999999995 453.0046000000001 9.170790709761187
2.9999999999999996 450.2191999999998 9.056943169722315
3.0999999999999996 447.95820000000043 9.496293611317643
3.1999999999999997 444.86499999999984 10.245665847990015
3.3 442.00739999999985 10.28628372508133
3.4 439.59440000000006 10.124097292400252
3.5 437.03700000000055 11.027988371753397
3.6 434.30099999999965 11.663211800765245
3.7 431.1280000000005 11.861932449708254
3.8000000000000003 428.17539999999997 11.755139222405544
3.9000000000000004 424.9871999999996 12.642030576497447
4.0 422.96179999999987 12.747475000127649
