# Rounds: 100, repetitions: 1000
# Good arm ~ N(5.0,0.0), 4 bad arm(s) ~ N(3.1,0.0)
# Observation noise range from 0.5 to 4.0 with step size 0.1

# Observation noise | mean | standard deviation

0.5 493.7083000000002 5.702139555070984
0.6 493.2390000000004 6.000473705024017
0.7 492.2775999999999 6.244148270791414
0.7999999999999999 491.2991000000002 5.7704043841620365
0.8999999999999999 488.9715999999998 6.8891838627151145
0.9999999999999999 487.99500000000046 6.504891129650725
1.0999999999999999 486.56620000000015 5.873659629007907
1.1999999999999997 485.07089999999994 5.836840917988246
1.2999999999999996 482.71489999999943 6.123764240928809
1.3999999999999995 481.0409999999999 6.511664977621364
1.4999999999999993 479.1695000000004 6.637279052685905
1.5999999999999992 477.4329000000001 6.624457035940478
1.699999999999999 475.19279999999986 6.56823338880781
1.799999999999999 473.13890000000043 6.6205610501390835
1.8999999999999988 471.08119999999997 6.57412851454288
1.9999999999999987 468.98739999999975 7.352007430168524
2.0999999999999988 466.99429999999995 7.885392629852195
2.199999999999999 464.8454000000003 7.792517062038569
2.299999999999999 462.67940000000016 7.667437984440767
2.399999999999999 460.5001000000003 8.081110959784196
2.499999999999999 458.6608999999996 8.789236136426299
2.599999999999999 455.8508 9.43886176779127
2.6999999999999993 454.0362999999998 9.120537073358527
2.7999999999999994 451.27370000000025 10.221790611889592
2.8999999999999995 449.3452000000005 10.115975975155871
2.9999999999999996 447.1754000000001 9.983818481496515
3.0999999999999996 444.2399000000001 10.848177770987695
3.1999999999999997 442.2392000000002 10.919630107365414
3.3 439.2086999999998 11.177181384127822
3.4 437.11870000000005 11.58839122230179
3.5 435.2434000000005 11.772734334627364
3.6 433.03180000000054 12.19176722005258
3.7 430.64920000000023 12.89519776837432
3.8000000000000003 428.3559000000005 13.048898763840143
3.9000000000000004 426.29440000000017 13.121548829451678
4.0 424.1569000000001 13.438739975240312
