# Rounds: 100, repetitions: 1000
# Good arm ~ N(5.0,0.0), 4 bad arm(s) ~ N(1.0,0.0)
# Observation noise range from 0.5 to 4.0 with step size 0.1

# Observation noise | mean | standard deviation

0.5 487.7039999999999 3.3026188534693404
0.6 487.6 3.5649275881437577
0.7 487.3880000000001 3.5628850879800034
0.7999999999999999 487.27599999999967 3.907312515155539
0.8999999999999999 487.20399999999944 4.036666778256362
0.9999999999999999 486.8679999999993 4.255900455683716
1.0999999999999999 486.45199999999977 4.723770740627605
1.1999999999999997 485.7160000000004 5.649713555859532
1.2999999999999996 485.2200000000002 5.303180529052664
1.3999999999999995 483.64799999999985 5.732447728235898
1.4999999999999993 482.6360000000001 6.207256562607528
1.5999999999999992 480.8759999999998 6.01904085821426
1.699999999999999 478.91600000000005 6.457448617112073
1.799999999999999 477.36800000000017 6.4126201897272965
1.8999999999999988 475.1560000000003 6.436232522919701
1.9999999999999987 473.2319999999999 7.327746711771118
2.0999999999999988 471.1839999999997 6.854862006862966
2.199999999999999 469.31999999999965 7.151835341277728
2.299999999999999 467.3320000000003 7.10410052323616
2.399999999999999 464.856 7.847091234390014
2.499999999999999 463.324 7.738922077067009
2.599999999999999 460.62 7.947752309097592
2.6999999999999993 458.3519999999995 7.983723181313055
2.7999999999999994 455.79199999999986 8.69530587986094
2.8999999999999995 453.15200000000016 9.080713372602155
2.9999999999999996 450.9960000000005 9.36502470299401
3.0999999999999996 447.84399999999965 10.09701013239138
3.1999999999999997 444.8960000000002 10.493583720507454
3.3 442.88 10.085599601378163
3.4 439.8119999999995 11.015897875616224
3.5 437.1480000000001 11.358658156451154
3.6 434.4320000000002 11.176864421576301
3.7 431.1480000000002 11.65718602347866
3.8000000000000003 428.9119999999999 11.46104757915311
3.9000000000000004 425.75599999999974 12.630914614706425
4.0 422.73200000000026 12.100024239090866
