# Rounds: 100, repetitions: 1000
# Good arm ~ N(5.0,0.0), 4 bad arm(s) ~ N(1.6,0.0)
# Observation noise range from 0.5 to 4.0 with step size 0.1

# Observation noise | mean | standard deviation

0.5 489.47559999999976 3.7721232155847293
0.6 489.27500000000015 4.205437040391985
0.7 489.1866000000003 4.4498608631845595
0.7999999999999999 489.24439999999953 4.053657703948445
0.8999999999999999 488.2889999999998 5.465820541711358
0.9999999999999999 488.14619999999974 5.377648618556698
1.0999999999999999 487.28259999999904 5.747243517378396
1.1999999999999997 486.8371999999998 5.699282233578011
1.2999999999999996 485.42619999999954 5.864311016965534
1.3999999999999995 483.64460000000025 6.1079618563018405
1.4999999999999993 482.4137999999999 6.167830387720771
1.5999999999999992 480.6492000000003 6.361959909799304
1.699999999999999 478.4086000000005 6.661569075116078
1.799999999999999 476.92280000000017 6.507336289572393
1.8999999999999988 474.79780000000005 6.539155581244075
1.9999999999999987 472.7204000000001 6.918063561679913
2.0999999999999988 470.8639999999997 6.901682201986492
2.199999999999999 468.8308000000004 7.158909228460818
2.299999999999999 466.87240000000025 6.906546070114842
2.399999999999999 464.7371999999997 7.34250424096086
2.499999999999999 462.39459999999974 7.920223530985777
2.599999999999999 459.91939999999965 8.146999278092359
2.6999999999999993 457.67200000000025 8.419193477929989
2.7999999999999994 455.06760000000014 8.853187514628237
2.8999999999999995 452.8134000000003 8.336041628376757
2.9999999999999996 449.8009999999998 9.309590080528148
3.0999999999999996 447.3428000000001 9.544325136032528
3.1999999999999997 444.5207999999996 10.263365141318133
3.3 441.3213999999998 10.594297578470313
3.4 439.4105999999999 10.470566383935529
3.5 436.81640000000044 10.914682832833083
3.6 434.2901999999999 11.774894993676652
3.7 430.8290000000005 12.025278638199037
3.8000000000000003 428.5884000000003 12.349311354522204
3.9000000000000004 425.3584000000002 12.605689701593187
4.0 423.2674000000001 13.115523405270327
