# Rounds: 100, repetitions: 1000
# Good arm ~ N(5.0,0.0), 4 bad arm(s) ~ N(4.3,0.0)
# Observation noise range from 0.5 to 4.0 with step size 0.1

# Observation noise | mean | standard deviation

0.5 494.01840000000044 4.5302786740845145
0.6 492.13259999999974 4.391820274706764
0.7 489.89259999999973 4.469270591452213
0.7999999999999999 487.95289999999983 4.538161136021551
0.8999999999999999 485.6897999999996 4.595525521070987
0.9999999999999999 483.90340000000015 4.288920992893597
1.0999999999999999 481.7067999999999 4.744728254200244
1.1999999999999997 480.04219999999987 4.7766908980941825
1.2999999999999996 477.62370000000004 5.53139807595461
1.3999999999999995 476.1411000000001 5.260533623502827
1.4999999999999993 474.8013000000001 5.2255291085653885
1.5999999999999992 473.3215000000006 5.30318126047763
1.699999999999999 471.51690000000013 5.497687601069989
1.799999999999999 470.44800000000026 5.571302847217614
1.8999999999999988 468.8625000000006 5.925326425037086
1.9999999999999987 467.6151000000003 6.127298407599827
2.0999999999999988 466.75830000000013 6.076152626517882
2.199999999999999 465.67470000000066 6.106353860321798
2.299999999999999 464.81720000000024 6.336787753983746
2.399999999999999 463.5522999999998 6.313822856959836
2.499999999999999 462.8985000000006 6.507003061228582
2.599999999999999 462.31400000000053 6.245679507668625
2.6999999999999993 461.18769999999984 6.103747573781519
2.7999999999999994 460.1839000000003 6.14764217357303
2.8999999999999995 460.02570000000026 6.071313726069474
2.9999999999999996 459.3908000000001 6.294885300062284
3.0999999999999996 458.8987000000003 6.146231729643271
3.1999999999999997 457.9726000000002 6.281438187684803
3.3 457.58830000000046 6.326556601219001
3.4 456.91210000000075 6.18775176149311
3.5 456.30730000000034 6.272819539487343
3.6 456.16800000000103 6.047085516448612
3.7 455.80960000000016 5.960553333041771
3.8000000000000003 455.12500000000006 6.167517594078881
3.9000000000000004 454.37810000000013 5.962136988317768
4.0 454.3473000000002 5.978574752068028
