# Rounds: 100, repetitions: 1000
# Good arm ~ N(5.0,0.0), 4 bad arm(s) ~ N(0.8,0.0)
# Observation noise range from 0.5 to 4.0 with step size 0.1

# Observation noise | mean | standard deviation

0.5 487.1458000000003 2.874676699409177
0.6 487.03659999999996 2.881646113651779
0.7 486.8811999999999 3.3495889757261987
0.7999999999999999 486.7216000000002 3.372421484136683
0.8999999999999999 486.4528 3.6991479905318436
0.9999999999999999 486.45280000000025 3.7039183537398914
1.0999999999999999 485.91519999999986 4.470972887253787
1.1999999999999997 485.59600000000006 4.8889063608751275
1.2999999999999996 484.7182000000002 5.301578585241896
1.3999999999999995 483.7227999999997 5.577320742674448
1.4999999999999993 482.54260000000005 5.904799056012983
1.5999999999999992 481.2868000000001 6.159604409902195
1.699999999999999 479.1909999999999 6.43618081034267
1.799999999999999 477.2506000000002 6.390166967605296
1.8999999999999988 475.3648000000002 7.050099635101952
1.9999999999999987 473.6175999999996 6.957259064724677
2.0999999999999988 471.3790000000003 7.2062979212442695
2.199999999999999 469.4764000000001 7.396457978697047
2.299999999999999 467.05720000000036 7.751532391367175
2.399999999999999 465.5157999999996 7.793962805673109
2.499999999999999 463.0965999999999 7.401511386927087
2.599999999999999 460.7991999999996 7.740795778166437
2.6999999999999993 458.3715999999997 8.359537984560824
2.7999999999999994 456.07840000000004 8.362177913645425
2.8999999999999995 453.7935999999997 9.068302661091149
2.9999999999999996 450.7024 9.268293019509883
3.0999999999999996 448.4302000000004 9.340619633361369
3.1999999999999997 444.92320000000046 10.039051963423839
3.3 443.1130000000003 10.470550292292348
3.4 439.9840000000002 10.87329814787636
3.5 437.2119999999999 10.988636226853924
3.6 434.78860000000014 11.013123032043138
3.7 431.52940000000024 11.758341474639762
3.8000000000000003 428.5389999999999 11.833952908535721
3.9000000000000004 426.23320000000024 11.754986919494108
4.0 423.07479999999987 12.519134702274494
