# Rounds: 100, repetitions: 1000
# Good arm ~ N(5.0,0.0), 4 bad arm(s) ~ N(0.3,0.0)
# Observation noise range from 0.5 to 4.0 with step size 0.1

# Observation noise | mean | standard deviation

0.5 485.49970000000064 2.4197655207013757
0.6 485.3869000000006 2.484119409215092
0.7 485.26470000000023 2.723303194704946
0.7999999999999999 485.0861000000001 2.962224090368871
0.8999999999999999 484.9309999999999 3.368341539203651
0.9999999999999999 484.4797999999998 4.131770018222637
1.0999999999999999 484.4986000000002 3.7822696365546733
1.1999999999999997 483.9487000000003 4.3849499536592464
1.2999999999999996 483.6338 4.790595721553588
1.3999999999999995 482.7878 5.148858310528826
1.4999999999999993 481.8994999999996 5.503509640980801
1.5999999999999992 480.87489999999974 5.699962241941536
1.699999999999999 479.07950000000005 6.301458412790515
1.799999999999999 477.43919999999974 6.625985741536636
1.8999999999999988 475.79889999999983 6.606144862167335
1.9999999999999987 473.84370000000007 6.649063870979155
2.0999999999999988 471.62059999999974 7.332647773032882
2.199999999999999 469.77349999999984 7.062886953797456
2.299999999999999 467.6679000000004 7.290542613660629
2.399999999999999 465.09229999999974 7.672069561817182
2.499999999999999 462.7376000000002 7.820529836713589
2.599999999999999 460.5426999999994 8.041322626258678
2.6999999999999993 458.22559999999964 8.52889950502214
2.7999999999999994 455.96960000000036 8.466030327698418
2.8999999999999995 453.7888000000001 8.873854847802045
2.9999999999999996 450.67269999999974 8.863052431775895
3.0999999999999996 448.2851000000002 9.575391172485121
3.1999999999999997 445.7799999999999 10.010598987677588
3.3 442.9412000000001 9.834981923187776
3.4 439.96610000000027 10.09027722535335
3.5 437.75240000000025 10.928427369240485
3.6 434.2133 11.220090174928735
3.7 430.63190000000037 11.475733739280233
3.8000000000000003 427.5956999999995 11.84865655558348
3.9000000000000004 425.6639999999999 12.518858007254789
4.0 422.8016999999999 11.96273020777548
