# Rounds: 100, repetitions: 1000
# Good arm ~ N(5.0,1.0), 4 bad arm(s) ~ N(2.0,1.0)
# Observation noise range from 0.5 to 4.0 with step size 0.1

# Observation noise | mean | standard deviation

0.5 488.72999475255267 11.754765904870517
0.6 488.63292378528536 11.826028799187233
0.7 487.69106841722237 11.268384921158797
0.7999999999999999 488.7474064397486 11.720990700625334
0.8999999999999999 487.2504762834704 11.765859318848374
0.9999999999999999 486.16970379378336 12.149932468704819
1.0999999999999999 485.0372775259122 12.267290841969476
1.1999999999999997 484.70005939300364 12.090182414994224
1.2999999999999996 482.7268730064119 12.437538439879672
1.3999999999999995 481.07027844539886 13.467727770557646
1.4999999999999993 479.5542438981956 12.834040708215557
1.5999999999999992 477.919441981624 12.670645616977703
1.699999999999999 476.40680052360403 13.066546979259476
1.799999999999999 474.7500748166267 13.577045406691708
1.8999999999999988 472.39781451631524 13.515755503803096
1.9999999999999987 471.0486238338588 13.795910445312566
2.0999999999999988 468.1510083641675 14.307669647626188
2.199999999999999 467.0576979379075 13.99094534608134
2.299999999999999 464.3750668954653 14.862290040316628
2.399999999999999 461.9897667366284 15.144576123125548
2.499999999999999 459.3146426592475 15.106958329018811
2.599999999999999 456.7272206681984 16.086711553344895
2.6999999999999993 455.07185113329894 16.363308060486606
2.7999999999999994 452.4729968228408 16.578783426790935
2.8999999999999995 450.37498403643394 16.847991547785565
2.9999999999999996 447.5546872031474 16.20258093519319
3.0999999999999996 445.4048613522812 16.963107832839167
3.1999999999999997 442.46967359809105 17.405187660758394
3.3 439.5185544939782 17.635548769444075
3.4 437.62737694801183 17.94955526778366
3.5 434.70424968755196 19.098032188485302
3.6 431.70514441036534 18.663710357313004
3.7 429.0616576607768 18.85992964342489
3.8000000000000003 426.1312322248047 19.616080706554648
3.9000000000000004 423.91411304367705 18.764250280797363
4.0 420.3183788798462 19.706710794649396
