# Rounds: 1000, repetitions: 1000
# Good arm ~ N(5.0,0.0), 16 bad arm(s) ~ N(4.5,0.0)
# Observation noise range from 0.5 to 8.0 with step size 0.1

# Observation noise | mean | standard deviation

0.5 4939.643999999997 1.9911626575266876
0.6 4919.542499999995 2.3322485144454546
0.7 4898.253 2.7487354449903796
0.7999999999999999 4876.240999999999 3.038774942826966
0.8999999999999999 4854.170499999996 3.4678820562348927
0.9999999999999999 4832.094000000004 3.839584144983197
1.0999999999999999 4810.238500000003 3.9120546931148192
1.1999999999999997 4789.272000000001 4.334201345265486
1.2999999999999996 4768.971499999993 4.654363635434069
1.3999999999999995 4750.0695000000005 4.974551830659335
1.4999999999999993 4732.078499999999 5.095984380549756
1.5999999999999992 4715.923499999996 5.3024063653461555
1.699999999999999 4700.727000000003 5.641125179721921
1.799999999999999 4687.2045000000035 5.571622090802865
1.8999999999999988 4674.565999999995 5.819666013828605
1.9999999999999987 4663.730999999999 5.6735639882113365
2.0999999999999988 4654.0265 5.702329726902325
2.199999999999999 4645.307999999998 5.668665607510293
2.299999999999999 4637.6844999999985 5.703835857867352
2.399999999999999 4630.691499999992 5.854344634636862
2.499999999999999 4624.102999999999 5.496644804251435
2.599999999999999 4618.731999999993 5.726383454455948
2.6999999999999993 4613.545999999996 5.734218801655982
2.7999999999999994 4609.429000000002 5.429681430842922
2.8999999999999995 4605.159500000011 5.779421377738584
2.9999999999999996 4601.7320000000045 5.485687629529106
3.0999999999999996 4598.351999999997 5.492701135667727
3.1999999999999997 4595.215499999996 5.588563481950582
3.3 4592.2585000000045 5.2387854148287625
3.4 4589.720999999992 5.5197941199946206
3.5 4587.591500000001 5.678038205918273
3.6 4585.782000000002 5.612038040762993
3.7 4583.274999999998 5.37887602639315
3.8000000000000003 4581.629499999992 5.30732017098997
3.9000000000000004 4579.9185 5.518973348079899
4.0 4578.169999999989 5.4036375988124234
4.1 4577.1605 5.5615573961499845
4.199999999999999 4575.604499999998 5.566805104282765
4.299999999999999 4574.055000000003 5.673902375628983
4.399999999999999 4572.945500000007 5.609165935546242
4.499999999999998 4571.758500000005 5.581763505724158
4.599999999999998 4570.970500000008 5.611315943396578
4.6999999999999975 4569.934999999991 5.7617247827775
4.799999999999997 4568.698499999992 5.712440785665093
4.899999999999997 4567.953499999999 5.771429385095796
4.9999999999999964 4566.703999999999 5.867479127471267
5.099999999999996 4566.038 5.843989066400462
5.199999999999996 4564.895000000007 5.742730531198019
5.299999999999995 4564.489499999999 5.854734636827477
5.399999999999995 4563.883000000004 5.665369132493259
5.499999999999995 4563.259999999991 5.845217409691985
5.599999999999994 4562.34900000001 6.067908908225184
5.699999999999994 4561.603499999998 5.9057951341175325
5.799999999999994 4561.064999999995 6.24073086438775
5.899999999999993 4560.4885000000095 5.932943415166506
5.999999999999993 4559.789499999999 6.077736307921576
6.0999999999999925 4559.162499999999 5.984660383840489
6.199999999999992 4558.961500000004 5.982437405214281
6.299999999999992 4558.497999999998 6.13907030291919
6.3999999999999915 4557.916000000003 6.291385024422336
6.499999999999991 4556.928500000004 6.21335203360422
6.599999999999991 4556.816999999994 6.281557845707461
6.69999999999999 4555.964499999996 6.131850400926248
6.79999999999999 4555.798 6.480369680133297
6.89999999999999 4555.25449999999 6.272864463590656
6.999999999999989 4554.979999999994 6.282799819632444
7.099999999999989 4554.259500000011 6.216796466694773
7.199999999999989 4553.951500000007 6.342327874910974
7.299999999999988 4553.282499999997 6.1399220184292815
7.399999999999988 4553.040000000001 6.374875609691486
7.499999999999988 4552.6125000000075 6.310143553173843
7.599999999999987 4552.483499999995 6.152180676563106
7.699999999999987 4551.885000000001 6.581382042518872
7.7999999999999865 4551.727000000003 6.1475412372153135
7.899999999999986 4551.368500000003 6.207615664829953
7.999999999999986 4550.849999999994 6.364157642807266
