# Rounds: 1000, repetitions: 1000
# Good arm ~ N(5.0,0.0), 16 bad arm(s) ~ N(3.0,0.0)
# Observation noise range from 0.5 to 8.0 with step size 0.1

# Observation noise | mean | standard deviation

0.5 4969.151999999994 6.1265349448469895
0.6 4964.38 7.351574365103417
0.7 4953.274 6.034346471436464
0.7999999999999999 4942.026000000011 4.823130372132405
0.8999999999999999 4933.247999999995 5.195140564555059
0.9999999999999999 4922.603999999999 5.2465903890727015
1.0999999999999999 4910.281999999998 5.374510336892206
1.1999999999999997 4897.8299999999945 5.229765812199435
1.2999999999999996 4884.8059999999905 5.706042667464341
1.3999999999999995 4871.568000000003 5.994105880388284
1.4999999999999993 4857.219999999999 6.258335782519722
1.5999999999999992 4842.696000000009 6.579275862195684
1.699999999999999 4828.046000000003 7.058591056840435
1.799999999999999 4812.832000000001 7.463744601973129
1.8999999999999988 4797.183999999996 7.984854532294467
1.9999999999999987 4781.364000000001 7.977665519883998
2.0999999999999988 4765.058000000001 8.504643729455315
2.199999999999999 4748.801999999991 8.901462353570388
2.299999999999999 4732.120000000001 9.448962000287873
2.399999999999999 4714.551999999997 9.529433671845723
2.499999999999999 4697.845999999998 9.993405433191995
2.599999999999999 4680.489999999998 11.029122428440974
2.6999999999999993 4662.745999999993 11.194677521251112
2.7999999999999994 4645.372000000001 11.68067010295445
2.8999999999999995 4627.909999999998 11.821490923214702
2.9999999999999996 4609.813999999987 12.296853931661406
3.0999999999999996 4592.213999999998 13.050230362430858
3.1999999999999997 4573.509999999997 13.590312601136013
3.3 4554.9839999999995 13.570847870045297
3.4 4537.159999999999 14.543517934595938
3.5 4518.693999999996 14.990900276204004
3.6 4500.046000000003 15.096814160537232
3.7 4481.947999999999 16.093486144906432
3.8000000000000003 4464.232000000004 15.520665806178153
3.9000000000000004 4444.150000000001 17.212372461859086
4.0 4426.407999999995 16.867900345391565
4.1 4407.509999999998 17.845065041807572
4.199999999999999 4389.292000000003 18.40754121477324
4.299999999999999 4370.872000000002 19.213765502492887
4.399999999999999 4353.324000000007 19.59262348168042
4.499999999999998 4334.378000000008 19.385585286931995
4.599999999999998 4315.316 20.07902665248768
4.6999999999999975 4297.517999999996 20.948472844446652
4.799999999999997 4277.908000000001 21.724628776931812
4.899999999999997 4260.612 22.48241345841041
4.9999999999999964 4242.70199999999 22.694453821016012
5.099999999999996 4225.794000000003 23.639382064351533
5.199999999999996 4207.972000000005 24.21506939047641
5.299999999999995 4188.899999999998 24.90192976670898
5.399999999999995 4170.811999999998 25.531010330350874
5.499999999999995 4154.723999999999 24.46471635532172
5.599999999999994 4136.112000000004 25.73856891767548
5.699999999999994 4120.014 26.669815955178304
5.799999999999994 4101.020000000001 26.94998890355801
5.899999999999993 4084.5740000000005 29.58935710781941
5.999999999999993 4067.993999999998 28.44603911164334
6.0999999999999925 4051.9900000000007 29.3269154185702
6.199999999999992 4035.302000000002 29.65630274144593
6.299999999999992 4019.015999999999 29.058357354333225
6.3999999999999915 4002.555999999999 28.866661534513277
6.499999999999991 3985.5900000000006 31.42781582623278
6.599999999999991 3970.2340000000036 32.40041714285529
6.69999999999999 3953.7479999999987 31.46615029860842
6.79999999999999 3938.683999999999 33.28350846794755
6.89999999999999 3925.0440000000017 32.35275513406493
6.999999999999989 3908.9480000000035 33.17544130687492
7.099999999999989 3894.623999999999 32.35431077036607
7.199999999999989 3878.8540000000003 35.3084319868409
7.299999999999988 3863.1759999999977 33.55841461081245
7.399999999999988 3849.416000000001 36.486466069026356
7.499999999999988 3834.058000000002 36.11566110397229
7.599999999999987 3820.562000000001 35.109611801340684
7.699999999999987 3808.913999999999 36.229562310151955
7.7999999999999865 3792.952000000002 37.80172835554828
7.899999999999986 3781.8759999999997 35.5417478444693
7.999999999999986 3767.5459999999966 36.41087249209544
