# Rounds: 1000, repetitions: 1000
# Good arm ~ N(5.0,1.0), 16 bad arm(s) ~ N(0.0,1.0)
# Observation noise range from 0.5 to 8.0 with step size 0.1

# Observation noise | mean | standard deviation

0.5 4924.107473338403 32.69431897064496
0.6 4924.3635365926575 32.27457770221605
0.7 4921.701223098397 31.490650824829693
0.7999999999999999 4922.028241425749 31.68445619578521
0.8999999999999999 4924.3917687117155 32.46253090611523
0.9999999999999999 4920.3350689143135 32.96661159880484
1.0999999999999999 4919.4365596279 32.20163227888899
1.1999999999999997 4916.533460690555 30.67843354111101
1.2999999999999996 4910.495994911503 32.9321601734453
1.3999999999999995 4903.921224737314 33.08506666370002
1.4999999999999993 4896.822267077445 33.726841937352766
1.5999999999999992 4886.164355017995 34.27289915377493
1.699999999999999 4876.824701955622 33.27922342249979
1.799999999999999 4866.824740598309 34.58171837036139
1.8999999999999988 4855.5015449797975 34.55163145188963
1.9999999999999987 4842.951849662193 35.63288105511837
2.0999999999999988 4834.119942098687 34.92406063517023
2.199999999999999 4822.259464468609 35.5181546797095
2.299999999999999 4811.225891294127 34.23555165182682
2.399999999999999 4800.560965401532 36.495555577144906
2.499999999999999 4785.407628166405 36.723770649692455
2.599999999999999 4771.205695814572 36.75018153280837
2.6999999999999993 4761.30608932178 37.57209169450239
2.7999999999999994 4748.2878538056475 37.11888099333667
2.8999999999999995 4731.752880527247 37.619377297989786
2.9999999999999996 4717.761102473361 38.04109378271932
3.0999999999999996 4704.861404788854 37.65008311905522
3.1999999999999997 4693.727520807106 38.859264310817025
3.3 4677.114571970929 39.01589795415496
3.4 4660.31237394823 39.649592458193325
3.5 4646.597454024567 39.35345730092759
3.6 4631.834752943602 39.699678803094706
3.7 4612.278033885412 41.52087095844795
3.8000000000000003 4598.827292911998 40.21915011216424
3.9000000000000004 4579.945648359056 41.279191493305426
4.0 4564.083048345131 40.075698197888556
4.1 4548.722382002706 41.05375096025616
4.199999999999999 4530.351522585601 43.49431960949004
4.299999999999999 4510.521111482941 43.40506412555055
4.399999999999999 4496.701383046087 44.8897559666727
4.499999999999998 4476.644272935801 44.37403303331607
4.599999999999998 4460.564219030117 43.841387613011385
4.6999999999999975 4441.510676380476 46.1200453469444
4.799999999999997 4423.856741994033 46.45554208089597
4.899999999999997 4403.521628144884 46.35430274081242
4.9999999999999964 4386.492983644155 46.954186006924445
5.099999999999996 4367.1718263282555 46.75429788279674
5.199999999999996 4348.024154366902 47.656797021640216
5.299999999999995 4328.660369505734 48.51043127886717
5.399999999999995 4304.741798196822 48.24535622252124
5.499999999999995 4288.524675318397 49.262622826165334
5.599999999999994 4267.237858388241 54.01561758121173
5.699999999999994 4246.033426107663 50.03138065927905
5.799999999999994 4225.273081896531 51.35045543673187
5.899999999999993 4206.672979384241 53.179642473927096
5.999999999999993 4186.667441305595 52.602966509799764
6.0999999999999925 4164.071833350355 53.99122902471731
6.199999999999992 4144.892768382249 52.126455671489296
6.299999999999992 4120.9155830669915 55.68268911420273
6.3999999999999915 4095.7156405917663 58.3184110255314
6.499999999999991 4076.541075308791 56.95520740986446
6.599999999999991 4056.7313382937327 60.10271868776485
6.69999999999999 4035.389813151887 57.288972484988065
6.79999999999999 4008.652816179207 58.50717815573069
6.89999999999999 3985.921482722847 58.30092341743171
6.999999999999989 3962.76996757855 60.00335504816472
7.099999999999989 3941.9230994924355 59.28734577106694
7.199999999999989 3917.4240812098237 61.53026172269012
7.299999999999988 3896.132546307562 60.764382440060764
7.399999999999988 3877.614001657183 64.27066443465081
7.499999999999988 3847.0718269185936 62.95984226327659
7.599999999999987 3825.9948203596955 65.87493855815683
7.699999999999987 3801.960572723807 65.5035327807336
7.7999999999999865 3776.978099733766 63.33993459250359
7.899999999999986 3753.0742632742713 68.31005682806926
7.999999999999986 3732.428143922168 68.72140570623279
