# Rounds: 1000, repetitions: 1000
# Good arm ~ N(5.0,1.0), 13 bad arm(s) ~ N(1.0,1.0)
# Observation noise range from 0.5 to 8.0 with step size 0.1

# Observation noise | mean | standard deviation

0.5 4950.074753170548 31.8650299388148
0.6 4948.889163527578 32.311203008311146
0.7 4949.486355936563 31.240105847724543
0.7999999999999999 4946.966387322148 31.939846908788052
0.8999999999999999 4944.63195330099 31.660679635425943
0.9999999999999999 4943.177808492934 33.70513426740169
1.0999999999999999 4937.083638720658 32.31838529488602
1.1999999999999997 4931.109785220465 34.25902836035364
1.2999999999999996 4926.757013002454 33.079063373505676
1.3999999999999995 4920.120090203306 33.647758839742046
1.4999999999999993 4909.696070265505 34.56730763886062
1.5999999999999992 4905.187053109278 34.81760757683161
1.699999999999999 4895.200883245083 33.545306439183776
1.799999999999999 4886.48293838535 34.99362842927343
1.8999999999999988 4876.549630945738 34.648220514298536
1.9999999999999987 4866.613898956609 33.40077350290235
2.0999999999999988 4857.433967524646 34.87172072650794
2.199999999999999 4847.033416432665 34.98330533823355
2.299999999999999 4837.299506994442 35.059037709312726
2.399999999999999 4825.247629336059 35.45164365362267
2.499999999999999 4813.708327366116 35.39246225008771
2.599999999999999 4804.333363082689 37.1519728424411
2.6999999999999993 4793.911954343808 36.245097038163294
2.7999999999999994 4782.362524604308 37.869120002061194
2.8999999999999995 4769.607943234371 36.724804089695986
2.9999999999999996 4758.890609680943 38.13025303513642
3.0999999999999996 4746.171970367738 39.039341665715085
3.1999999999999997 4729.8416122791305 38.61661485470102
3.3 4717.137837494643 37.96293209529116
3.4 4706.392900208648 38.662626325623194
3.5 4693.393880452135 37.924585285429416
3.6 4679.614828579068 40.15573848907991
3.7 4667.241174331139 39.81146002908367
3.8000000000000003 4653.96692590203 38.914856315037895
3.9000000000000004 4635.208679610638 40.79828229391052
4.0 4624.507298002483 40.7833269601345
4.1 4606.953205936324 41.64435778983173
4.199999999999999 4595.604024952887 40.56375204805129
4.299999999999999 4580.622526302202 43.422499990616004
4.399999999999999 4563.048883424525 42.1235004921902
4.499999999999998 4551.588787793815 43.51362517044366
4.599999999999998 4534.227992202135 43.71294998189026
4.6999999999999975 4520.706240570736 43.508393694512996
4.799999999999997 4507.099962730172 44.29548805993885
4.899999999999997 4488.299141083684 45.464532666690914
4.9999999999999964 4471.954560325137 45.30145264309018
5.099999999999996 4457.391332330721 44.42921878450664
5.199999999999996 4441.296714163174 47.78938026595411
5.299999999999995 4424.103029043107 47.1483057537006
5.399999999999995 4402.316869029005 46.271149196253276
5.499999999999995 4390.323935672137 48.2937734208976
5.599999999999994 4373.139878258876 47.640287894720764
5.699999999999994 4357.591600808714 49.72676609138772
5.799999999999994 4340.31030203566 51.19372043046867
5.899999999999993 4322.631046807405 51.54466744726459
5.999999999999993 4305.0402181214395 50.0772879892145
6.0999999999999925 4289.595783237313 53.34595586141527
6.199999999999992 4269.244640496292 55.090909742995784
6.299999999999992 4253.3312504120395 51.76890159170932
6.3999999999999915 4238.630444041194 54.78224243977114
6.499999999999991 4214.99707206126 54.6832777619505
6.599999999999991 4200.358912006392 54.22971550100955
6.69999999999999 4182.598789606652 55.615779385557964
6.79999999999999 4159.096100502753 54.513622368844416
6.89999999999999 4142.473007639121 57.2035719828657
6.999999999999989 4125.164396629045 57.99125757600039
7.099999999999989 4105.634727610018 58.232206364953385
7.199999999999989 4084.6274487163673 56.58198784128216
7.299999999999988 4069.281409986094 59.345712801202914
7.399999999999988 4048.26120378518 60.655651433626545
7.499999999999988 4028.7721236308207 61.25361144529193
7.599999999999987 4011.7957938029954 61.99736818602579
7.699999999999987 3991.496393693122 61.00841225741279
7.7999999999999865 3974.0402443524467 61.15669778733502
7.899999999999986 3947.073325514449 63.73871882927481
7.999999999999986 3927.6574167531544 65.67495813541693
