# Rounds: 1000, repetitions: 1000
# Good arm ~ N(5.0,0.0), 13 bad arm(s) ~ N(0.0,0.0)
# Observation noise range from 0.5 to 8.0 with step size 0.1

# Observation noise | mean | standard deviation

0.5 4939.779999999997 1.2661766082198724
0.6 4939.709999999996 1.5225696103030115
0.7 4939.500000000004 2.3141640726956583
0.7999999999999999 4939.314999999997 2.5811697808237066
0.8999999999999999 4939.174999999999 2.748076950692385
0.9999999999999999 4939.064999999998 2.9596510832418326
1.0999999999999999 4938.900000000001 3.2558563544175
1.1999999999999997 4937.840000000005 4.712388630684706
1.2999999999999996 4935.725000000001 6.179608609172766
1.3999999999999995 4932.045000000009 7.059944604444035
1.4999999999999993 4924.240000000004 9.284859105479706
1.5999999999999992 4914.569999999994 9.552819288375382
1.699999999999999 4902.465000000005 9.75930422822341
1.799999999999999 4891.764999999999 8.808368882055523
1.8999999999999988 4881.610000000006 7.708262924765661
1.9999999999999987 4873.920000000007 7.087583074210422
2.0999999999999988 4866.769999999998 7.508227052605272
2.199999999999999 4858.929999999997 8.653321904331305
2.299999999999999 4849.875000000001 8.993901559682808
2.399999999999999 4840.089999999995 10.276064299988407
2.499999999999999 4828.979999999996 10.595842197384451
2.599999999999999 4818.320000000003 10.772355529021635
2.6999999999999993 4808.030000000002 10.257890832150812
2.7999999999999994 4796.764999999997 11.042269092297387
2.8999999999999995 4785.769999999995 11.253165498371224
2.9999999999999996 4774.624999999993 12.028260641258672
3.0999999999999996 4761.599999999999 12.154741368607477
3.1999999999999997 4750.859999999995 13.006905073059455
3.3 4738.37 12.381292194128886
3.4 4725.759999999999 13.751782121292917
3.5 4713.374999999999 13.979621053691119
3.6 4699.920000000001 14.58102212487885
3.7 4687.005000000008 14.235787039452058
3.8000000000000003 4674.575000000001 15.19787321799826
3.9000000000000004 4660.8399999999965 15.578417348597567
4.0 4646.895000000006 15.853558285454707
4.1 4633.819999999999 16.45686569272622
4.199999999999999 4619.705000000014 17.08156183593157
4.299999999999999 4605.1199999999935 17.289723379352676
4.399999999999999 4590.55 17.383891960654186
4.499999999999998 4575.494999999995 17.214130861048375
4.599999999999998 4561.820000000002 18.71999033221003
4.6999999999999975 4546.455000000002 18.522987774008744
4.799999999999997 4530.975000000001 18.65401692256517
4.899999999999997 4515.925000000001 19.08752756929793
4.9999999999999964 4498.8099999999995 20.496438812730442
5.099999999999996 4483.670000000001 20.277876917771593
5.199999999999996 4467.809999999999 21.073632766991004
5.299999999999995 4452.254999999998 21.800578896906387
5.399999999999995 4436.399999999999 21.494231830935515
5.499999999999995 4418.675000000001 23.21439818912571
5.599999999999994 4402.110000000008 22.3348773613545
5.699999999999994 4385.800000000002 23.938108384603687
5.799999999999994 4367.115000000005 23.969278280776283
5.899999999999993 4351.5099999999975 25.008905320811966
5.999999999999993 4334.845000000004 25.054514637160786
6.0999999999999925 4314.904999999998 24.886448326555364
6.199999999999992 4298.145000000001 26.727295473416767
6.299999999999992 4280.615000000001 26.300922293971233
6.3999999999999915 4261.939999999997 27.570755277042156
6.499999999999991 4242.670000000002 28.36063161189157
6.599999999999991 4226.814999999999 27.96180676633104
6.69999999999999 4207.520000000004 30.109902128804737
6.79999999999999 4188.459999999998 29.69613207574782
6.89999999999999 4170.025 29.623502948282823
6.999999999999989 4153.265000000005 30.533540116928307
7.099999999999989 4132.975 31.03123124067596
7.199999999999989 4111.7199999999975 31.97364405121685
7.299999999999988 4091.7250000000017 33.388083789566885
7.399999999999988 4072.7700000000036 32.72381316332112
7.499999999999988 4053.970000000001 34.97802971241471
7.599999999999987 4033.72 34.92823473325817
7.699999999999987 4013.28 34.96303782588139
7.7999999999999865 3994.945000000002 35.44401576081992
7.899999999999986 3972.754999999999 35.61394850796989
7.999999999999986 3953.2999999999947 36.027878205745196
