# Rounds: 1000, repetitions: 1000
# Good arm ~ N(5.0,0.0), 13 bad arm(s) ~ N(2.0,0.0)
# Observation noise range from 0.5 to 8.0 with step size 0.1

# Observation noise | mean | standard deviation

0.5 4964.227000000004 4.257181531787716
0.6 4964.077000000006 4.287126129524361
0.7 4963.270000000002 5.217693391176304
0.7999999999999999 4962.304000000004 5.479014838782988
0.8999999999999999 4957.374999999996 6.689628250218871
0.9999999999999999 4949.139999999992 6.896663248554615
1.0999999999999999 4938.990999999999 6.460546235238723
1.1999999999999997 4929.6699999999955 5.536040800766204
1.2999999999999996 4922.650000000006 5.014842833893046
1.3999999999999995 4914.943000000005 5.622220234067778
1.4999999999999993 4906.102000000002 6.446483782121292
1.5999999999999992 4896.187000000007 6.813843222400973
1.699999999999999 4886.113000000003 7.010519123315897
1.799999999999999 4876.078 7.1818866250794615
1.8999999999999988 4866.123999999997 7.345241764338064
1.9999999999999987 4854.597999999991 7.473704051690358
2.0999999999999988 4843.933000000004 8.30406337093286
2.199999999999999 4832.599000000001 8.345528554072951
2.299999999999999 4820.862999999995 9.019178265040347
2.399999999999999 4808.475999999994 9.142483743983849
2.499999999999999 4796.814999999997 9.282830707599146
2.599999999999999 4784.401000000001 9.557276837077634
2.6999999999999993 4771.779999999997 9.910591295165984
2.7999999999999994 4759.831000000005 10.083556769172127
2.8999999999999995 4745.838999999993 10.830899657341014
2.9999999999999996 4733.797000000005 11.566571513485606
3.0999999999999996 4719.553 11.60878783314407
3.1999999999999997 4706.514999999993 11.79554618955434
3.3 4692.259000000003 12.804838260707683
3.4 4677.901000000001 12.461801454665174
3.5 4664.409999999998 12.721231454923245
3.6 4649.649999999998 13.52325324684777
3.7 4636.023999999995 13.994830448393374
3.8000000000000003 4620.418000000007 14.228623606299013
3.9000000000000004 4606.515999999999 14.781415163448813
4.0 4590.037000000011 15.196597236472716
4.1 4576.468000000007 16.665134343974017
4.199999999999999 4560.322000000003 16.201135540226606
4.299999999999999 4544.728000000008 16.881202296963096
4.399999999999999 4529.194000000002 17.719942447997962
4.499999999999998 4514.775999999996 18.313962575729644
4.599999999999998 4498.245999999999 18.349773791472202
4.6999999999999975 4483.179999999997 18.988000003795687
4.799999999999997 4467.001000000003 19.319996409452592
4.899999999999997 4449.748000000003 19.870514168821494
4.9999999999999964 4434.841000000001 20.19503796873277
5.099999999999996 4418.056000000001 20.79113116535832
5.199999999999996 4400.085999999998 21.683421657450072
5.299999999999995 4386.348999999999 21.458930184999573
5.399999999999995 4369.090000000003 23.073931314500882
5.499999999999995 4351.780000000003 22.830041848643447
5.599999999999994 4335.922000000003 22.01828151152404
5.699999999999994 4317.807999999995 23.808149108319295
5.799999999999994 4300.405000000005 24.242538556753406
5.899999999999993 4283.047000000005 24.364573122125975
5.999999999999993 4267.062999999998 26.13005569857845
6.0999999999999925 4248.261999999991 26.625105675888896
6.199999999999992 4232.503000000005 26.304865271218095
6.299999999999992 4214.253999999999 28.309944135178664
6.3999999999999915 4197.037000000004 26.834823247764046
6.499999999999991 4180.471000000003 28.075565825044343
6.599999999999991 4163.505999999998 28.79314170091564
6.69999999999999 4144.375000000004 28.15359657308461
6.79999999999999 4126.936000000004 29.850778431608312
6.89999999999999 4108.432 30.537123176420693
6.999999999999989 4093.117000000002 30.206717080092616
7.099999999999989 4074.8500000000004 31.99542478554094
7.199999999999989 4057.3629999999985 32.74998920294162
7.299999999999988 4036.929999999998 33.988856149366725
7.399999999999988 4018.0539999999937 34.871924740902
7.499999999999988 4000.7709999999965 34.31136588404533
7.599999999999987 3982.786000000002 34.38354886326359
7.699999999999987 3968.5240000000003 35.09266189560032
7.7999999999999865 3946.191999999997 36.493107333890876
7.899999999999986 3929.722000000002 36.67762211436236
7.999999999999986 3913.8280000000004 37.68023641401706
