# Rounds: 1000, repetitions: 1000
# Good arm ~ N(5.0,0.0), 13 bad arm(s) ~ N(4.0,0.0)
# Observation noise range from 0.5 to 8.0 with step size 0.1

# Observation noise | mean | standard deviation

0.5 4968.320000000008 3.352437745706691
0.6 4957.714999999997 3.389286394252109
0.7 4945.802 3.1535283002916943
0.7999999999999999 4933.048000000009 3.176442315828483
0.8999999999999999 4919.426000000011 3.604929891068515
0.9999999999999999 4904.967000000009 3.6078979930047796
1.0999999999999999 4889.861000000004 4.0851398222541935
1.1999999999999997 4874.711000000001 4.279227826464796
1.2999999999999996 4859.019999999995 4.783145249569417
1.3999999999999995 4842.772999999999 5.106226056937207
1.4999999999999993 4826.438000000007 5.592444137533444
1.5999999999999992 4809.4619999999995 5.835461302125919
1.699999999999999 4792.9969999999985 6.3048189301312885
1.799999999999999 4776.229000000008 6.468879764333656
1.8999999999999988 4758.879999999999 7.058429104370312
1.9999999999999987 4742.259999999994 7.141526545592463
2.0999999999999988 4725.5889999999945 7.656415590842761
2.199999999999999 4708.2059999999965 8.17547566826556
2.299999999999999 4692.154999999998 8.019431793231142
2.399999999999999 4674.634999999996 8.907475406540147
2.499999999999999 4658.638999999999 8.756446445582581
2.599999999999999 4642.4839999999995 9.768683185116133
2.6999999999999993 4626.913000000004 9.88175490892584
2.7999999999999994 4611.3900000000085 10.290957380331779
2.8999999999999995 4595.6669999999895 10.601344230780372
2.9999999999999996 4581.525000000006 10.576068656557993
3.0999999999999996 4566.130999999999 11.610022895396584
3.1999999999999997 4552.023000000007 11.791077156074424
3.3 4537.448000000002 11.74594667377911
3.4 4524.444999999997 12.420597660589678
3.5 4510.5109999999995 12.473791503567545
3.6 4497.654000000001 13.272016818495588
3.7 4485.724 12.88246023792746
3.8000000000000003 4472.611 13.369159039124847
3.9000000000000004 4461.349999999993 13.619066744053333
4.0 4449.651000000001 13.82752325615111
4.1 4438.886000000006 14.863173211596479
4.199999999999999 4429.592999999999 14.771443617552961
4.299999999999999 4418.6559999999945 15.25268200377588
4.399999999999999 4408.189000000001 16.030229170141272
4.499999999999998 4399.041999999997 15.633766361649716
4.599999999999998 4390.404999999992 15.744550354515285
4.6999999999999975 4379.851999999998 16.067366189150484
4.799999999999997 4372.584 15.719734541462664
4.899999999999997 4364.034000000011 15.922448566987713
4.9999999999999964 4356.167999999998 16.801847460266927
5.099999999999996 4348.844000000012 16.883622855321168
5.199999999999996 4341.558999999999 17.29519131558371
5.299999999999995 4333.069999999994 17.03582458583437
5.399999999999995 4326.354999999996 17.303131894930885
5.499999999999995 4320.527999999999 17.200030728375378
5.599999999999994 4314.230999999993 17.772774417926744
5.699999999999994 4307.825999999992 17.34198571295884
5.799999999999994 4302.383000000005 17.873157548703055
5.899999999999993 4296.707000000003 17.53392681602126
5.999999999999993 4291.165999999993 18.156820044107803
6.0999999999999925 4284.661999999997 18.028665751762865
6.199999999999992 4281.007000000007 18.37412745029162
6.299999999999992 4275.236000000002 17.804193137946257
6.3999999999999915 4270.554000000001 18.626164876807504
6.499999999999991 4266.014999999993 17.928195536506056
6.599999999999991 4260.825000000011 19.221129696946196
6.69999999999999 4257.371000000009 18.556554224982214
6.79999999999999 4253.339000000004 18.764919429648582
6.89999999999999 4248.661 18.77782430649732
6.999999999999989 4244.788000000003 18.95289603908248
7.099999999999989 4240.635 18.681616037639195
7.199999999999989 4237.141000000006 19.19185885854849
7.299999999999988 4233.146000000007 18.603730345895208
7.399999999999988 4230.265000000001 19.493146430419024
7.499999999999988 4226.998 18.60123657185183
7.599999999999987 4224.596 18.81570659887142
7.699999999999987 4220.441999999997 19.051130716615784
7.7999999999999865 4217.534999999998 19.11235351957099
7.899999999999986 4214.2990000000045 18.752419903901792
7.999999999999986 4210.962 19.795515108691138
