# Rounds: 1000, repetitions: 1000
# Good arm ~ N(5.0,1.0), 13 bad arm(s) ~ N(4.5,1.0)
# Observation noise range from 0.5 to 8.0 with step size 0.1

# Observation noise | mean | standard deviation

0.5 4882.783078808117 136.94219415391302
0.6 4891.123198546768 107.64742846721153
0.7 4879.003249122307 97.8236247569751
0.7999999999999999 4875.789395635545 75.44521141635346
0.8999999999999999 4856.889317116622 67.24189367162641
0.9999999999999999 4845.208796254054 65.81851026824577
1.0999999999999999 4827.588254246524 63.13321883930101
1.1999999999999997 4810.221227367316 63.07188554730299
1.2999999999999996 4793.706083452632 61.425243595828064
1.3999999999999995 4778.57703627759 61.65093664190423
1.4999999999999993 4759.371187144838 57.50930956514834
1.5999999999999992 4747.362575216002 58.50376457227001
1.699999999999999 4732.276806904401 56.745658546109276
1.799999999999999 4717.318035975344 59.40628821164032
1.8999999999999988 4707.825196526061 53.158164686497706
1.9999999999999987 4694.2259432045585 54.79711895351595
2.0999999999999988 4688.788077847084 52.88550711756905
2.199999999999999 4674.055520301039 52.231160812522205
2.299999999999999 4670.447787398275 49.91160979421683
2.399999999999999 4660.895864392063 47.404219350543016
2.499999999999999 4651.451705632174 48.95879840857986
2.599999999999999 4647.609531726268 46.501642878218966
2.6999999999999993 4640.382562501914 45.69797732860727
2.7999999999999994 4634.729996989587 46.20357784127012
2.8999999999999995 4630.41441956845 45.196734551892035
2.9999999999999996 4625.397087257254 43.187239814868846
3.0999999999999996 4621.555616450436 44.47340652398246
3.1999999999999997 4620.70412504705 42.372437561240694
3.3 4619.279495032175 42.66497524975493
3.4 4612.899994883169 41.16080158208798
3.5 4608.338158936884 40.174948086964534
3.6 4606.60413400975 41.90828653729992
3.7 4605.392226988333 40.33421337387487
3.8000000000000003 4601.68332675652 38.49945804901009
3.9000000000000004 4600.782521172183 39.00940204313764
4.0 4598.09222611412 38.81341969896191
4.1 4594.308978938021 37.36693889705848
4.199999999999999 4594.9091331311265 37.05548057227048
4.299999999999999 4591.55496607329 37.03488120992522
4.399999999999999 4589.565268341105 37.73416404386494
4.499999999999998 4591.250758773121 37.39004477261989
4.599999999999998 4589.469489027919 37.24996402043898
4.6999999999999975 4585.974167721077 36.50127402029758
4.799999999999997 4585.503070399268 36.69516139122361
4.899999999999997 4585.376976621519 34.61283253784929
4.9999999999999964 4582.58360138923 35.818844564631505
5.099999999999996 4582.439595268887 37.40136791981589
5.199999999999996 4582.089185911164 36.624212600679144
5.299999999999995 4578.790450785168 35.83086269920751
5.399999999999995 4578.567893575335 34.58696291419895
5.499999999999995 4578.315985425442 35.40854366170485
5.599999999999994 4576.400328328803 35.402536928463086
5.699999999999994 4575.994675151057 36.73363018260648
5.799999999999994 4575.534533088355 35.27884337339626
5.899999999999993 4573.784626164336 34.002656176598904
5.999999999999993 4574.018977058567 35.93080925310591
6.0999999999999925 4573.183426081615 34.02447704647161
6.199999999999992 4573.40083294166 33.568981077891095
6.299999999999992 4571.540704109347 34.39419562110807
6.3999999999999915 4569.029271838992 35.12682005049215
6.499999999999991 4571.157396625462 35.42979493005154
6.599999999999991 4570.753641973108 33.948996080819384
6.69999999999999 4568.995553241937 34.14797578649025
6.79999999999999 4568.680499898629 33.8355095808414
6.89999999999999 4569.051733964007 34.320961069886245
6.999999999999989 4567.05994512986 34.05500503962642
7.099999999999989 4568.2981433129535 34.917198289935186
7.199999999999989 4566.220293803992 34.057738814239855
7.299999999999988 4567.716459940174 33.63480202696735
7.399999999999988 4564.629992786015 33.5544145908862
7.499999999999988 4564.153280638735 34.441546395304066
7.599999999999987 4565.133373698223 33.73508458995383
7.699999999999987 4563.206654239776 32.79392060004618
7.7999999999999865 4563.5190222988 33.43874352846468
7.899999999999986 4562.415049039771 34.34777571367081
7.999999999999986 4562.550946789839 34.6518095908493
