# Rounds: 1000, repetitions: 1000
# Good arm ~ N(5.0,0.0), 13 bad arm(s) ~ N(4.5,0.0)
# Observation noise range from 0.5 to 8.0 with step size 0.1

# Observation noise | mean | standard deviation

0.5 4951.3755 1.8856843732596427
0.6 4934.7829999999985 2.2483251468517476
0.7 4917.224499999999 2.534812621284828
0.7999999999999999 4898.958000000009 2.907350802481331
0.8999999999999999 4880.238000000004 3.1605925623758298
0.9999999999999999 4861.487999999995 3.5499941490738554
1.0999999999999999 4842.651499999994 3.6389613614037852
1.1999999999999997 4823.945500000004 4.119982282001205
1.2999999999999996 4806.133000000004 4.587139942584389
1.3999999999999995 4788.582999999997 4.660722404663633
1.4999999999999993 4772.093500000008 4.925115685394052
1.5999999999999992 4756.30200000001 5.179780509454658
1.699999999999999 4741.8660000000045 5.563991553013209
1.799999999999999 4728.143999999993 5.447333057326113
1.8999999999999988 4714.803999999997 5.661018559511265
1.9999999999999987 4703.619000000005 5.739144254745376
2.0999999999999988 4692.842000000002 5.748746305420332
2.199999999999999 4682.846000000013 6.187533399471013
2.299999999999999 4673.507000000002 5.8457783163684836
2.399999999999999 4665.026000000007 6.326282150350697
2.499999999999999 4657.867999999998 6.2122192224412025
2.599999999999999 4651.178499999993 6.136288926687836
2.6999999999999993 4645.223499999991 6.1054134850822495
2.7999999999999994 4639.543499999999 6.173246043753377
2.8999999999999995 4634.5245 6.010513790519573
2.9999999999999996 4629.596500000001 6.286012384787466
3.0999999999999996 4625.264499999997 6.3024209840553
3.1999999999999997 4621.488499999997 6.415510620872377
3.3 4617.834000000007 6.224482965531214
3.4 4614.627499999999 6.3187356464858135
3.5 4611.354000000003 6.211784789436132
3.6 4609.023000000004 6.312750733382553
3.7 4606.236500000002 6.349143987923047
3.8000000000000003 4603.429000000001 6.385901560370207
3.9000000000000004 4601.325999999995 6.331730791404096
4.0 4598.998500000005 6.316220578193278
4.1 4597.304499999995 6.187917264320001
4.199999999999999 4595.524500000002 6.274194391733899
4.299999999999999 4593.378500000006 6.238221152953222
4.399999999999999 4591.672999999996 6.463656074533203
4.499999999999998 4590.4315 6.467099901125005
4.599999999999998 4588.280000000006 6.124590648411563
4.6999999999999975 4587.130999999994 6.355960764293417
4.799999999999997 4585.900999999996 6.410365963951816
4.899999999999997 4585.174500000004 6.328257785251552
4.9999999999999964 4583.970999999999 6.770376429490266
5.099999999999996 4582.458500000005 6.601295695153699
5.199999999999996 4581.381500000005 6.588255676798111
5.299999999999995 4580.820500000011 6.607510040774743
5.399999999999995 4579.035000000003 6.758731793425124
5.499999999999995 4578.497 6.526644473853924
5.599999999999994 4577.365499999998 6.759241606652102
5.699999999999994 4576.490500000006 6.864785869569073
5.799999999999994 4575.908500000006 6.508205166133318
5.899999999999993 4575.068499999998 6.896928691481123
5.999999999999993 4573.911499999988 6.705660566538789
6.0999999999999925 4573.218499999999 6.616478333338338
6.199999999999992 4572.253 6.814427887022335
6.299999999999992 4572.262999999999 6.720676937518941
6.3999999999999915 4571.368499999995 6.949154516809834
6.499999999999991 4570.544999999995 6.837230632553088
6.599999999999991 4570.082999999999 7.005618437346476
6.69999999999999 4569.1995 7.371994034591064
6.79999999999999 4569.127499999996 7.256110865670029
6.89999999999999 4568.309000000006 7.069299399091402
6.999999999999989 4567.533000000002 7.15238195062088
7.099999999999989 4566.937500000006 7.2751131277129515
7.199999999999989 4566.409999999991 7.2504461220651075
7.299999999999988 4565.7405000000035 7.148217033411696
7.399999999999988 4565.577999999998 7.172821297464842
7.499999999999988 4565.554500000002 7.41085018405113
7.599999999999987 4564.165999999998 7.244268315256106
7.699999999999987 4564.147499999999 7.149098079712739
7.7999999999999865 4563.453500000006 7.18848120342621
7.899999999999986 4563.120499999997 7.063045827854011
7.999999999999986 4562.568499999998 7.362626298815931
