# Rounds: 1000, repetitions: 1000
# Good arm ~ N(5.0,1.0), 13 bad arm(s) ~ N(3.0,1.0)
# Observation noise range from 0.5 to 8.0 with step size 0.1

# Observation noise | mean | standard deviation

0.5 4959.596004669052 45.224282067729526
0.6 4959.9286804043895 36.45317325760602
0.7 4953.20383549442 34.067795310047025
0.7999999999999999 4945.2986145272225 45.22654226129458
0.8999999999999999 4939.7097190254335 35.602455180342915
0.9999999999999999 4930.705103063088 33.766066594697094
1.0999999999999999 4919.536817568562 69.27974420946424
1.1999999999999997 4912.170363817083 35.91082895316745
1.2999999999999996 4901.030461839854 36.606406668265414
1.3999999999999995 4893.087102299436 35.129787123770264
1.4999999999999993 4879.975709119791 36.31442379332449
1.5999999999999992 4866.901776292454 36.89883017255156
1.699999999999999 4855.072920737363 37.02914508145686
1.799999999999999 4842.871960673452 37.58006414221658
1.8999999999999988 4829.844878823046 37.68458373356497
1.9999999999999987 4816.757112636283 37.784416438930265
2.0999999999999988 4806.96414787256 39.64721090719887
2.199999999999999 4790.245847870753 40.633977001461744
2.299999999999999 4774.736459701282 38.91027379644008
2.399999999999999 4763.9892816599395 39.791401207292516
2.499999999999999 4750.699434280273 41.27448044974133
2.599999999999999 4734.543456926778 41.262594736646996
2.6999999999999993 4718.686919394842 40.53241669211567
2.7999999999999994 4705.977944688629 44.00379281006428
2.8999999999999995 4692.345918013136 41.77277907843887
2.9999999999999996 4674.36467552375 44.150366318931695
3.0999999999999996 4658.639739205278 47.82567445730329
3.1999999999999997 4643.420381102396 46.38792213715528
3.3 4630.571328826893 44.39816870454885
3.4 4613.0788503453505 45.254065843942485
3.5 4597.83323656107 47.16918076431906
3.6 4582.7577079680195 47.68895886030816
3.7 4568.4973689615435 45.68464534224636
3.8000000000000003 4552.125039747665 48.971934635829584
3.9000000000000004 4537.300635485063 49.92100156467316
4.0 4518.235650221028 47.95282860231871
4.1 4504.237066458053 49.88116589546188
4.199999999999999 4488.535477340825 50.37438924185504
4.299999999999999 4473.395657892571 51.31405704385252
4.399999999999999 4454.053441637121 53.12919571670427
4.499999999999998 4441.834747415008 52.88758387305171
4.599999999999998 4425.769701694513 52.44708872407321
4.6999999999999975 4407.818150632765 53.558635610392336
4.799999999999997 4390.963316886091 55.125059832421826
4.899999999999997 4377.893107017456 56.79643178658884
4.9999999999999964 4359.987856885052 56.383485381386706
5.099999999999996 4344.581155165641 56.4590647354201
5.199999999999996 4328.733031819686 57.94878018783266
5.299999999999995 4312.19117738237 57.026035698333835
5.399999999999995 4298.374684724066 57.7212974744647
5.499999999999995 4284.188587928078 59.22471126987257
5.599999999999994 4265.496335148569 61.78739413443963
5.699999999999994 4253.626654305568 62.81723728742547
5.799999999999994 4238.32999413531 61.06079792640535
5.899999999999993 4221.496398141276 62.29335513394929
5.999999999999993 4207.761655415221 63.46987504968902
6.0999999999999925 4189.72722703226 65.27714860206203
6.199999999999992 4173.565019860964 64.53918076195598
6.299999999999992 4158.371108772169 66.92150629579746
6.3999999999999915 4146.464580137121 66.00686414393482
6.499999999999991 4130.441313800023 65.57510377469818
6.599999999999991 4120.143170581907 62.526025854917506
6.69999999999999 4099.773677019027 67.40071655433886
6.79999999999999 4085.442264043965 69.69694955429466
6.89999999999999 4069.503722598195 65.50974947222821
6.999999999999989 4055.6460978009422 69.59797264796217
7.099999999999989 4042.8626616707197 66.91985455120685
7.199999999999989 4028.934267189365 68.69258791290476
7.299999999999988 4013.2831585222166 71.19482673580018
7.399999999999988 4002.112775519689 68.36015570635473
7.499999999999988 3987.094715677796 69.55564191645662
7.599999999999987 3973.5198333272465 67.12850960189105
7.699999999999987 3962.3094323719033 68.93378095507299
7.7999999999999865 3946.3191064250805 74.07332676984254
7.899999999999986 3932.4673466670633 70.11301868506284
7.999999999999986 3922.748470961298 70.58985737126224
