# Rounds: 500, repetitions: 1000
# Good arm ~ N(5.0,1.0), 10 bad arm(s) ~ N(0.0,1.0)
# Observation noise range from 0.5 to 8.0 with step size 0.1

# Observation noise | mean | standard deviation

0.5 2454.3229839288433 22.756319796342495
0.6 2455.0461053043696 22.68374659679645
0.7 2453.2448211875962 22.48755132539745
0.7999999999999999 2454.102224957261 22.46846243592226
0.8999999999999999 2454.636947505456 23.500871165603716
0.9999999999999999 2452.3273444823317 23.596505047706312
1.0999999999999999 2451.178506448104 22.745568617274753
1.1999999999999997 2450.9616572249365 23.08111566979096
1.2999999999999996 2447.034032348579 22.872207184785378
1.3999999999999995 2444.8822330564685 24.016659609510086
1.4999999999999993 2438.52776199148 24.68032399472055
1.5999999999999992 2435.715581036854 24.646558290268498
1.699999999999999 2430.2101510223492 24.750759661465068
1.799999999999999 2424.5447068654526 26.177149873660245
1.8999999999999988 2417.9969449135187 24.918987559154363
1.9999999999999987 2412.0187926138246 24.43404847724661
2.0999999999999988 2405.311598818848 25.614391364191572
2.199999999999999 2401.096050731381 25.708512419673152
2.299999999999999 2394.775973707376 25.54186594410376
2.399999999999999 2387.4033805321574 26.266177428943564
2.499999999999999 2380.330871080266 26.347456815092745
2.599999999999999 2372.289493453468 27.357566507722574
2.6999999999999993 2366.1500211770567 27.573702901052545
2.7999999999999994 2357.5620932032507 28.025471300400035
2.8999999999999995 2351.584348296695 26.624343668247516
2.9999999999999996 2343.020986422785 27.305046039121848
3.0999999999999996 2335.3527741465246 27.98563355559614
3.1999999999999997 2325.138807754498 28.221514713655242
3.3 2318.8235821382523 28.97156323423244
3.4 2310.501672008291 29.675380341281038
3.5 2300.7958905335245 30.5844953247832
3.6 2293.496134934866 29.540306045606968
3.7 2283.745616241543 30.793090223118
3.8000000000000003 2274.9026718594055 31.50550676993458
3.9000000000000004 2265.801146737088 32.04374079928246
4.0 2254.3050346866503 32.35239462949803
4.1 2248.034745980841 31.111040973655378
4.199999999999999 2237.1372773465446 32.08751500726373
4.299999999999999 2226.7908138407583 31.383754358236963
4.399999999999999 2217.9795363254425 33.438856612790204
4.499999999999998 2208.3860427361406 33.83673073307945
4.599999999999998 2199.7010287209505 35.5562564569759
4.6999999999999975 2187.0978591355088 35.50334324024694
4.799999999999997 2174.6536795635684 35.08958219334992
4.899999999999997 2166.2571184710064 35.13909030866837
4.9999999999999964 2156.951542881357 34.90014584191325
5.099999999999996 2144.074701453178 35.53006265915079
5.199999999999996 2134.618931358625 37.16336878771167
5.299999999999995 2122.2305458516835 36.75873929284312
5.399999999999995 2110.853939165025 36.87191989554135
5.499999999999995 2101.9024306892616 36.82485900008373
5.599999999999994 2089.59081942973 39.425879522813275
5.699999999999994 2076.9381904144407 38.99007600252382
5.799999999999994 2066.8973093992417 40.391524660944
5.899999999999993 2051.7623021884215 41.46923689424411
5.999999999999993 2041.5405901511094 40.58394802288175
6.0999999999999925 2028.981919020647 42.26109527214379
6.199999999999992 2017.434577803652 43.08209278660855
6.299999999999992 2004.3181476816019 42.685815362085414
6.3999999999999915 1992.6712979121685 44.02170561379995
6.499999999999991 1979.3164978554544 42.65132874101052
6.599999999999991 1968.8386519348269 43.348394370319184
6.69999999999999 1954.7657314349651 45.84546250910061
6.79999999999999 1941.0717563093935 46.92826621954453
6.89999999999999 1928.5633052099352 47.62417365223448
6.999999999999989 1920.4914645060314 47.24754607189403
7.099999999999989 1902.3306771483171 47.94551960351071
7.199999999999989 1890.2948785056599 48.64936093038626
7.299999999999988 1877.5952935364523 49.61532640039414
7.399999999999988 1867.7251037809715 49.65303110007258
7.499999999999988 1850.511831199363 51.00525015264687
7.599999999999987 1835.7672182614826 50.740249834170804
7.699999999999987 1824.4403317703893 51.32604663023524
7.7999999999999865 1810.612873700715 52.012554030869424
7.899999999999986 1797.7487014811343 51.622876940672086
7.999999999999986 1784.3292732177777 52.97722796978244
