# Rounds: 500, repetitions: 1000
# Good arm ~ N(5.0,0.0), 10 bad arm(s) ~ N(4.0,0.0)
# Observation noise range from 0.5 to 8.0 with step size 0.1

# Observation noise | mean | standard deviation

0.5 2478.7299999999977 4.469124419063917
0.6 2471.8169999999955 3.5572693411049072
0.7 2464.597 3.5804204236947377
0.7999999999999999 2456.5800000000013 3.3275625723151303
0.8999999999999999 2447.507999999997 3.7512675201867802
0.9999999999999999 2438.744000000001 4.099667214698197
1.0999999999999999 2429.69 3.96050319853243
1.1999999999999997 2420.2930000000006 4.2999582138249695
1.2999999999999996 2410.945 4.444967123920372
1.3999999999999995 2401.1549999999997 4.977323452293296
1.4999999999999993 2391.4270000000015 5.23469894770212
1.5999999999999992 2381.7799999999993 5.555039015025757
1.699999999999999 2372.138000000002 5.926726084617239
1.799999999999999 2362.665000000002 6.2809414282593625
1.8999999999999988 2353.657000000002 6.590659131512404
1.9999999999999987 2343.680999999999 7.0241424798744925
2.0999999999999988 2334.4229999999966 7.328012743627771
2.199999999999999 2325.0960000000005 7.6721343605052414
2.299999999999999 2317.068999999999 8.200944731827807
2.399999999999999 2307.4110000000023 8.311748562376279
2.499999999999999 2299.195000000003 9.16105342741215
2.599999999999999 2291.0700000000033 9.269359256228087
2.6999999999999993 2283.0690000000022 9.556336252066645
2.7999999999999994 2275.698000000003 10.102220095149903
2.8999999999999995 2267.212 10.820264975227445
2.9999999999999996 2260.502000000001 10.863517478791676
3.0999999999999996 2253.2269999999994 10.956163037692928
3.1999999999999997 2246.9949999999985 11.02563102681835
3.3 2239.824000000001 11.221004185674953
3.4 2233.831000000003 11.985829095189798
3.5 2228.1120000000014 12.048345057252437
3.6 2221.7940000000026 12.110500742257864
3.7 2215.8839999999955 12.384503216517013
3.8000000000000003 2210.9719999999993 12.433092849238998
3.9000000000000004 2205.3559999999998 12.950404510168019
4.0 2200.8919999999994 13.13304278576799
4.1 2196.441000000005 13.219882158487062
4.199999999999999 2190.9700000000007 13.419880520824053
4.299999999999999 2186.46 14.265970626561566
4.399999999999999 2182.249 13.768317455868253
4.499999999999998 2178.227000000003 14.486798760883609
4.599999999999998 2174.989 14.104176927662477
4.6999999999999975 2170.9020000000023 14.384759897798697
4.799999999999997 2167.399999999999 14.308344723577525
4.899999999999997 2164.158000000001 14.994928605494723
4.9999999999999964 2161.061999999997 13.939744347457486
5.099999999999996 2156.8139999999958 14.944388202222925
5.199999999999996 2153.173 15.119711527561503
5.299999999999995 2150.5430000000015 14.450500613057237
5.399999999999995 2148.641999999999 14.898919887488946
5.499999999999995 2145.5279999999984 13.93317441753134
5.599999999999994 2144.1029999999964 15.36777666286051
5.699999999999994 2139.6159999999936 15.723987655419611
5.799999999999994 2137.341000000008 14.99024437514033
5.899999999999993 2134.546999999998 15.418804445563573
5.999999999999993 2132.268 15.909597458493192
6.0999999999999925 2130.254 14.93608283890291
6.199999999999992 2129.2210000000005 14.92034770961374
6.299999999999992 2126.367999999999 15.204004003476788
6.3999999999999915 2124.1490000000003 14.826146283293383
6.499999999999991 2122.687000000001 14.875359064819477
6.599999999999991 2120.186000000003 15.011620590487647
6.69999999999999 2118.307 14.615072745332194
6.79999999999999 2116.737000000001 15.360135571171407
6.89999999999999 2114.9020000000005 14.9624955228823
6.999999999999989 2113.1770000000033 15.004359426573366
7.099999999999989 2111.786 15.80107204837313
7.199999999999989 2109.817999999999 15.141735308350501
7.299999999999988 2108.5849999999987 15.610524125200376
7.399999999999988 2107.3389999999995 14.64173690036328
7.499999999999988 2105.846999999995 14.838658186533491
7.599999999999987 2104.023999999998 15.320579106030692
7.699999999999987 2102.3729999999973 15.071330930479096
7.7999999999999865 2100.986000000001 15.060033486304294
7.899999999999986 2100.7189999999987 15.207475342945857
7.999999999999986 2098.385000000002 14.835797109554848
