# Rounds: 100, repetitions: 1000
# Good arm ~ N(5.0,0.0), 1 bad arm(s) ~ N(4.6,0.0)
# Observation noise range from 0.5 to 4.0 with step size 0.1

# Observation noise | mean | standard deviation

0.5 499.8923999999999 3.381007757082741
0.6 498.86879999999957 3.3198867764139837
0.7 497.95079999999956 3.3773400459216503
0.7999999999999999 497.08239999999984 3.3112678440040093
0.8999999999999999 496.1991999999998 3.2388531194745056
0.9999999999999999 495.1620000000001 3.334869916107297
1.0999999999999999 494.1248000000002 3.3842041601827124
1.1999999999999997 493.20199999999954 3.561825740066848
1.2999999999999996 492.35440000000017 3.546166371722576
1.3999999999999995 491.5880000000004 3.5694869711538804
1.4999999999999993 490.7688000000001 3.5921818342520457
1.5999999999999992 489.95960000000053 3.5052552909388255
1.699999999999999 489.4015999999997 3.9997994744531598
1.799999999999999 488.4788000000002 4.026045156179884
1.8999999999999988 487.94159999999994 4.053114503339013
1.9999999999999987 487.38200000000006 4.099170550147805
2.0999999999999988 486.7468000000009 4.126572228661245
2.199999999999999 486.5384000000007 4.093448639199171
2.299999999999999 485.6576000000005 4.208485902743812
2.399999999999999 485.03200000000027 4.116221480833979
2.499999999999999 484.58840000000004 4.089100901932592
2.599999999999999 484.1076000000003 4.318299428009786
2.6999999999999993 483.5716000000002 4.3363483897580215
2.7999999999999994 483.37600000000003 4.238578718102239
2.8999999999999995 482.85880000000003 4.387850931355279
2.9999999999999996 482.6728000000006 4.272347494424203
3.0999999999999996 482.22880000000026 4.2021933545457735
3.1999999999999997 481.9932000000001 4.233423630542456
3.3 481.4912000000002 4.215192808212935
3.4 481.3776000000005 4.18879508262744
3.5 481.13600000000037 4.328537887120755
3.6 480.5328000000008 4.185790845826457
3.7 480.46840000000077 4.220029631423175
3.8000000000000003 480.5980000000002 4.209964346618554
3.9000000000000004 480.1568000000002 4.293167250998332
4.0 479.7852000000001 4.289795251909205
