# Rounds: 100, repetitions: 1000
# Good arm ~ N(5.0,0.0), 1 bad arm(s) ~ N(2.2,0.0)
# Observation noise range from 0.5 to 4.0 with step size 0.1

# Observation noise | mean | standard deviation

0.5 499.7220000000006 4.239080773682645
0.6 499.48400000000004 4.581896744556554
0.7 499.44479999999976 4.8162463796186
0.7999999999999999 499.3608000000004 4.5394834805592446
0.8999999999999999 499.15640000000036 4.867857339227939
0.9999999999999999 498.47320000000013 5.379447947533271
1.0999999999999999 498.4927999999996 4.666686846803238
1.1999999999999997 497.9551999999995 5.004829795435723
1.2999999999999996 497.5212000000001 4.644549752387467
1.3999999999999995 497.1152000000006 4.593054006334457
1.4999999999999993 496.6027999999999 4.484866350983739
1.5999999999999992 496.2975999999998 3.989745895707144
1.699999999999999 495.38479999999964 4.606276885592836
1.799999999999999 494.7576000000001 4.902880834823555
1.8999999999999988 494.17240000000027 4.887068823096469
1.9999999999999987 493.5619999999999 4.4995201612707305
2.0999999999999988 492.9096000000002 4.595387407545252
2.199999999999999 491.8932 4.92380722994286
2.299999999999999 491.25200000000024 5.022170665976854
2.399999999999999 490.46239999999995 4.761669847830667
2.499999999999999 489.3312 5.497305424198934
2.599999999999999 488.93919999999974 5.0474250722382905
2.6999999999999993 487.8724000000003 5.235930978652546
2.7999999999999994 486.43319999999954 5.806973282072036
2.8999999999999995 485.90960000000035 5.664704468612367
2.9999999999999996 484.81480000000045 5.851723132857842
3.0999999999999996 483.6276000000002 5.9124237834407065
3.1999999999999997 482.86599999999993 6.207474263880313
3.3 481.88880000000006 6.23994964174644
3.4 481.0124000000002 6.475728630918792
3.5 479.2904 7.148172088317683
3.6 478.3524000000003 6.891509787205341
3.7 477.05320000000023 7.065219535661093
3.8000000000000003 476.6527999999999 6.92043818154779
3.9000000000000004 474.5079999999997 7.361823989505078
4.0 473.62320000000034 7.941151279483583
