# Rounds: 100, repetitions: 1000
# Good arm ~ N(5.0,0.0), 1 bad arm(s) ~ N(4.7,0.0)
# Observation noise range from 0.5 to 4.0 with step size 0.1

# Observation noise | mean | standard deviation

0.5 499.9528000000001 2.480028770539317
0.6 498.9060999999999 2.673982605211389
0.7 497.9398000000002 2.6356674112457443
0.7999999999999999 496.8720999999996 2.7160243699898006
0.8999999999999999 495.9246999999999 2.711669792408951
0.9999999999999999 495.24100000000004 2.7926399406006497
1.0999999999999999 494.48589999999973 2.8368043021415508
1.1999999999999997 493.6719999999999 2.833684133026468
1.2999999999999996 493.09359999999947 2.7611633532015545
1.3999999999999995 492.46089999999987 3.032820335791332
1.4999999999999993 491.6469999999996 3.1632731935919747
1.5999999999999992 491.27049999999997 3.0427254111944126
1.699999999999999 490.7544999999996 3.1224813273484875
1.799999999999999 490.38280000000003 2.9506729114950865
1.8999999999999988 489.8241999999997 3.081134165814282
1.9999999999999987 489.54490000000015 2.983916511524412
2.0999999999999988 489.2262999999997 3.1101658221776196
2.199999999999999 488.74779999999953 3.0912507162945113
2.299999999999999 488.40579999999994 3.0415649717666358
2.399999999999999 488.04789999999946 3.1590560655400837
2.499999999999999 487.74699999999916 3.139459699885882
2.599999999999999 487.47610000000014 3.2401261097691276
2.6999999999999993 487.15929999999923 3.133357854034841
2.7999999999999994 487.0038999999997 3.3004071684381473
2.8999999999999995 486.79029999999943 3.271063399838993
2.9999999999999996 486.53649999999953 3.2385345228754736
3.0999999999999996 486.37599999999946 3.202695936435693
3.1999999999999997 486.15309999999914 3.2522434529840956
3.3 485.9679999999997 3.211639866272528
3.4 485.8467999999997 3.1589093795911416
3.5 485.50419999999957 3.10178390985314
3.6 485.5455999999994 3.1924869009305312
3.7 485.2579 3.1054696152968444
3.8000000000000003 485.13939999999957 3.0819321773761272
3.9000000000000004 485.1321999999997 3.1144378116898244
4.0 484.96329999999966 3.217890291468682
