# Rounds: 100, repetitions: 1000
# Good arm ~ N(5.0,0.0), 1 bad arm(s) ~ N(4.1,0.0)
# Observation noise range from 0.5 to 4.0 with step size 0.1

# Observation noise | mean | standard deviation

0.5 499.8088 5.387235363789562
0.6 499.23999999999984 5.135251776769148
0.7 498.69189999999963 4.939765751093436
0.7999999999999999 498.13570000000016 4.508718670981168
0.8999999999999999 497.4598000000001 4.748466267321667
0.9999999999999999 496.87209999999993 4.378452058939613
1.0999999999999999 495.9694000000001 4.4406759894461345
1.1999999999999997 495.06850000000014 4.550418008716793
1.2999999999999996 493.99750000000006 4.894042848750456
1.3999999999999995 493.17220000000026 4.765572141709544
1.4999999999999993 492.05260000000004 4.91970697874955
1.5999999999999992 491.07160000000044 5.128096217000124
1.699999999999999 490.15449999999976 5.639578405749381
1.799999999999999 488.8576000000009 5.437848143561259
1.8999999999999988 488.3554000000002 4.939359078676947
1.9999999999999987 487.0035999999998 5.300279237927012
2.0999999999999988 486.23859999999996 5.502501937079864
2.199999999999999 485.06050000000005 5.801093210114167
2.299999999999999 483.57999999999976 5.995403644865371
2.399999999999999 482.5117000000001 6.796034077989131
2.499999999999999 481.64500000000027 6.59025693630277
2.599999999999999 480.53620000000075 6.644132302570005
2.6999999999999993 479.4723999999998 6.6056182475550695
2.7999999999999994 478.5706000000002 7.033551484597718
2.8999999999999995 477.93520000000024 6.968043814055312
2.9999999999999996 476.77780000000035 7.5804782705849645
3.0999999999999996 475.15690000000006 7.8487932796033055
3.1999999999999997 474.97330000000017 7.658976238834208
3.3 473.6134000000003 7.894547759328869
3.4 472.7026 7.847723236710108
3.5 471.7855000000003 7.8141231286863055
3.6 470.46790000000016 7.9975421393244455
3.7 469.75870000000106 8.343455972651094
3.8000000000000003 469.3492000000001 8.543345252774705
3.9000000000000004 468.3484000000004 8.50312298749937
4.0 467.63830000000047 8.340709234863672
