# Rounds: 100, repetitions: 1000
# Good arm ~ N(5.0,0.0), 1 bad arm(s) ~ N(3.4,0.0)
# Observation noise range from 0.5 to 4.0 with step size 0.1

# Observation noise | mean | standard deviation

0.5 499.5744000000001 5.4952290381913995
0.6 499.4143999999996 5.546703395581803
0.7 498.94559999999944 5.709125568312076
0.7999999999999999 498.6512000000003 5.724283884119117
0.8999999999999999 498.25759999999974 5.194148767740607
0.9999999999999999 497.8287999999997 5.376325458473976
1.0999999999999999 496.9856 5.6431159298208025
1.1999999999999997 496.6464000000003 5.0687927260541645
1.2999999999999996 496.0799999999999 5.191229995759072
1.3999999999999995 495.33439999999945 5.1428616222552295
1.4999999999999993 494.65439999999995 5.138755437598429
1.5999999999999992 493.79360000000025 5.020490450579952
1.699999999999999 493.4000000000003 4.558067131578477
1.799999999999999 492.2416000000001 5.22737361156394
1.8999999999999988 491.7168000000004 4.905558302809401
1.9999999999999987 490.63360000000023 5.879224125368629
2.0999999999999988 489.68640000000045 5.689705421881482
2.199999999999999 488.75840000000056 5.464852610460233
2.299999999999999 487.4672000000003 5.81031874891246
2.399999999999999 486.69119999999987 6.060410145454753
2.499999999999999 485.5264 6.3750784045895825
2.599999999999999 484.7551999999996 5.937781589971998
2.6999999999999993 483.61119999999994 6.043011877578296
2.7999999999999994 482.2208000000001 6.59110689111094
2.8999999999999995 481.67519999999985 6.637035120834842
2.9999999999999996 479.8496000000003 7.175808809609687
3.0999999999999996 478.99039999999985 7.325383886806828
3.1999999999999997 477.8527999999998 7.759823904382544
3.3 477.18880000000087 7.3204168640223735
3.4 475.4703999999998 8.056030254626867
3.5 474.59200000000016 7.8404878195970165
3.6 473.3824 7.986355371013252
3.7 471.5248000000001 8.617589442982755
3.8000000000000003 471.04959999999966 8.595127460140198
3.9000000000000004 469.53919999999937 8.592054862881575
4.0 468.1280000000003 9.007683073596356
