# Rounds: 100, repetitions: 1000
# Good arm ~ N(5.0,0.0), 1 bad arm(s) ~ N(1.9,0.0)
# Observation noise range from 0.5 to 4.0 with step size 0.1

# Observation noise | mean | standard deviation

0.5 499.5719000000003 4.298753269224637
0.6 499.56570000000005 4.02961925513333
0.7 499.33629999999994 4.343357810158741
0.7999999999999999 499.2929000000003 4.522013732641486
0.8999999999999999 499.1317000000001 4.504783922474876
0.9999999999999999 498.9178000000002 4.522903914502235
1.0999999999999999 498.63880000000046 4.523690787215474
1.1999999999999997 498.3691 4.179251288368687
1.2999999999999996 497.88239999999973 4.507807734428154
1.3999999999999995 497.4887000000004 4.216365739597321
1.4999999999999993 496.6579000000006 4.453204309103544
1.5999999999999992 496.4502000000002 4.299242194089959
1.699999999999999 495.7930000000002 4.607761111696486
1.799999999999999 495.3124999999997 4.021714552021052
1.8999999999999988 494.48480000000023 4.462717199734344
1.9999999999999987 493.59510000000023 4.9721251008012715
2.0999999999999988 493.11150000000004 4.60637780327085
2.199999999999999 492.43880000000047 4.599607695331285
2.299999999999999 491.5738999999998 4.924965388109253
2.399999999999999 490.63149999999985 5.077244938563257
2.499999999999999 490.01150000000007 4.848524098726943
2.599999999999999 489.4534999999998 4.9922209506410935
2.6999999999999993 488.5575999999999 5.18393821871515
2.7999999999999994 487.54700000000014 5.58546223587527
2.8999999999999995 486.7967999999996 5.3984954861066194
2.9999999999999996 485.5164999999999 5.649401161493459
3.0999999999999996 484.79730000000023 5.800573192311201
3.1999999999999997 483.67200000000054 5.97690717841758
3.3 482.68309999999985 6.05032981587624
3.4 481.7871999999995 6.028394288506478
3.5 480.31780000000066 6.8533445478460635
3.6 479.4652999999996 6.288452157768275
3.7 478.32140000000004 6.544760953307284
3.8000000000000003 477.03179999999975 7.025897237505818
3.9000000000000004 475.72670000000005 7.04451718234345
4.0 474.5487000000005 7.339394049580326
