# Rounds: 10000, repetitions: 1000
# Good arm ~ N(5.0,0.0), 4 bad arm(s) ~ N(3.8,0.0)
# Observation noise range from 0.5 to 4.0 with step size 0.1

# Observation noise | mean | standard deviation

0.5 49989.031599999944 4.526876854306704
0.6 49985.110000000066 4.223379800223311
0.7 49980.48879999994 3.3801804952068966
0.7999999999999999 49975.15839999996 2.632184993087603
0.8999999999999999 49969.11280000004 2.7933418908031404
0.9999999999999999 49962.52600000003 2.583098216559275
1.0999999999999999 49955.44599999994 2.5983986752750563
1.1999999999999997 49947.96639999996 2.424266509297612
1.2999999999999996 49940.02000000001 2.683952980883989
1.3999999999999995 49931.65120000005 2.7864857909304193
1.4999999999999993 49922.92119999999 3.018214733939992
1.5999999999999992 49913.69440000001 3.106344800244512
1.699999999999999 49904.326000000015 3.3427560512258774
1.799999999999999 49894.505200000065 3.407413010395206
1.8999999999999988 49884.26079999997 3.752052939558445
1.9999999999999987 49873.6252 3.932320956902601
2.0999999999999988 49862.897200000014 4.166176807238854
2.199999999999999 49852.06720000003 4.306937876712464
2.299999999999999 49840.484800000006 4.480473591438978
2.399999999999999 49829.05960000006 4.620098825039592
2.499999999999999 49816.94920000005 4.843990462787874
2.599999999999999 49804.9168 5.191025380836101
2.6999999999999993 49792.45960000001 4.968703639364609
2.7999999999999994 49779.87160000004 5.473019951303066
2.8999999999999995 49766.90920000003 5.6312793099469785
2.9999999999999996 49753.75960000005 5.786633993346027
3.0999999999999996 49740.60879999997 6.114077567750006
3.1999999999999997 49726.75360000006 6.358833367981572
3.3 49712.99680000008 6.301162941424799
3.4 49699.213600000025 6.63513074475226
3.5 49684.82200000007 6.816490338913816
3.6 49670.910399999935 7.011088874572646
3.7 49656.50200000011 7.444572362305438
3.8000000000000003 49641.4924 7.47590204265032
3.9000000000000004 49626.62320000006 7.406975431646226
4.0 49611.6292 8.091950755347884
