# Rounds: 10000, repetitions: 1000
# Good arm ~ N(5.0,0.0), 4 bad arm(s) ~ N(4.9,0.0)
# Observation noise range from 0.5 to 4.0 with step size 0.1

# Observation noise | mean | standard deviation

0.5 49932.487100000224 0.9770456530756646
0.6 49909.39450000027 1.1328826828734844
0.7 49885.02190000029 1.4116526318912066
0.7999999999999999 49859.61480000048 1.5682092463058945
0.8999999999999999 49833.465500000675 1.7174310231496557
0.9999999999999999 49807.24860000085 1.951236880880866
1.0999999999999999 49780.901100000956 2.0976722858819543
1.1999999999999997 49754.77860000119 2.264988347018393
1.2999999999999996 49728.955700001345 2.567793035072692
1.3999999999999995 49704.04950000152 2.6125476368956138
1.4999999999999993 49679.81430000181 2.8281166442735803
1.5999999999999992 49656.49990000202 2.8703290366522753
1.699999999999999 49634.277300002286 3.049106715347113
1.799999999999999 49612.68490000244 3.2483493906245484
1.8999999999999988 49592.1124000027 3.3257370260685932
1.9999999999999987 49573.037600002834 3.4767706530532503
2.0999999999999988 49554.94140000305 3.572151495395262
2.199999999999999 49537.79740000318 3.736401200842976
2.299999999999999 49521.815500003424 3.754163487811051
2.399999999999999 49506.86200000355 3.627350778928944
2.499999999999999 49492.41860000367 3.7026400828739736
2.599999999999999 49479.2320000039 3.7452908035155454
2.6999999999999993 49466.72220000398 3.6819021664453904
2.7999999999999994 49455.03390000409 3.8934714471285727
2.8999999999999995 49444.07840000434 3.8939640979451253
2.9999999999999996 49434.09110000439 3.8593192579558746
3.0999999999999996 49424.37810000445 3.9378874218350264
3.1999999999999997 49415.40230000464 3.8071799706651857
3.3 49406.76900000467 3.9449996225231585
3.4 49398.92020000477 3.895577940071892
3.5 49391.49640000486 3.9523243677092537
3.6 49384.47540000497 4.001605638661508
3.7 49377.80450000505 3.9862312764643604
3.8000000000000003 49371.462400005104 4.035039998248635
3.9000000000000004 49365.61220000516 4.078674631103882
4.0 49359.86230000515 4.007848744804815
