# Rounds: 10000, repetitions: 1000
# Good arm ~ N(5.0,0.0), 4 bad arm(s) ~ N(4.6,0.0)
# Observation noise range from 0.5 to 4.0 with step size 0.1

# Observation noise | mean | standard deviation

0.5 49975.28359999992 1.2161291091050794
0.6 49964.812 1.2222233142250432
0.7 49953.249599999894 1.3182707148700286
0.7999999999999999 49940.652399999955 1.5593350396162142
0.8999999999999999 49926.94759999991 1.731338144841427
0.9999999999999999 49912.45119999997 1.893653739335477
1.0999999999999999 49897.14559999988 2.124361916805295
1.1999999999999997 49880.986399999936 2.320568913025664
1.2999999999999996 49864.42159999992 2.475589219156939
1.3999999999999995 49846.9847999999 2.760410989121388
1.4999999999999993 49828.71159999989 2.8786371761688554
1.5999999999999992 49810.136399999916 2.9670386513142155
1.699999999999999 49790.95759999985 3.1976158285557177
1.799999999999999 49771.67279999982 3.4688114409494424
1.8999999999999988 49751.06479999985 3.657964141665432
1.9999999999999987 49730.87199999977 3.98076657222665
2.0999999999999988 49709.82279999976 4.149320066840123
2.199999999999999 49688.39039999986 4.1818411777235465
2.299999999999999 49666.87679999973 4.561037691676922
2.399999999999999 49644.89719999973 4.6995316530316185
2.499999999999999 49622.58359999968 4.751731262399894
2.599999999999999 49599.9927999997 5.037972740043499
2.6999999999999993 49577.13079999968 5.3572447612118985
2.7999999999999994 49554.350799999665 5.223077627222891
2.8999999999999995 49531.03879999963 5.705366400668614
2.9999999999999996 49507.72559999961 6.097682048654874
3.0999999999999996 49484.04319999955 6.041224226121572
3.1999999999999997 49460.2031999995 6.275055863196011
3.3 49436.86239999952 6.550674589516887
3.4 49412.523999999445 6.892835060795263
3.5 49388.64679999936 7.179118992583426
3.6 49364.478399999316 7.160961724026462
3.7 49339.95959999939 7.164832354133079
3.8000000000000003 49316.131599999295 7.798583162314921
3.9000000000000004 49291.829999999296 7.646937665224424
4.0 49267.97359999924 8.139992783946939
