# Rounds: 10000, repetitions: 1000
# Good arm ~ N(5.0,1.0), 4 bad arm(s) ~ N(4.5,1.0)
# Observation noise range from 0.5 to 4.0 with step size 0.1

# Observation noise | mean | standard deviation

0.5 49844.90733117625 719.4814253221223
0.6 49876.3241638452 551.7955201546478
0.7 49923.04678872671 333.0748870427339
0.7999999999999999 49933.50226458369 204.9884727971344
0.8999999999999999 49918.459080908535 202.3742018004824
0.9999999999999999 49915.822492370215 120.3507295960326
1.0999999999999999 49908.055922318475 104.77837680555345
1.1999999999999997 49891.46576411204 108.65310873669726
1.2999999999999996 49876.469582485384 104.21483894330771
1.3999999999999995 49866.71940535887 101.96496209374548
1.4999999999999993 49857.65138286107 107.92579068841435
1.5999999999999992 49838.369765132964 104.69521691876119
1.699999999999999 49820.27020061793 108.75462204034534
1.799999999999999 49796.05297184227 105.9100411022304
1.8999999999999988 49779.9654182484 104.90857801896114
1.9999999999999987 49766.892468326936 107.68922237433809
2.0999999999999988 49748.92574976948 105.62311396838919
2.199999999999999 49725.11806263537 108.76917153498202
2.299999999999999 49699.387233965695 110.33921003538407
2.399999999999999 49688.66150158814 109.85612980506306
2.499999999999999 49662.99661399025 112.70834923597009
2.599999999999999 49636.02677855166 114.38101438080594
2.6999999999999993 49620.62242000187 113.14903188673581
2.7999999999999994 49605.83991740374 115.42760381227812
2.8999999999999995 49579.37548843303 110.74870005423652
2.9999999999999996 49561.57086832685 111.5815638456682
3.0999999999999996 49539.10674834286 116.01385476177575
3.1999999999999997 49511.403862552084 116.37570067979914
3.3 49493.88079844563 118.65638862293042
3.4 49471.872277113085 114.3609550686172
3.5 49445.090034938265 115.47291847112425
3.6 49431.84859176082 116.15903591512435
3.7 49405.09109829015 120.52960660800113
3.8000000000000003 49378.77621165175 117.16222279383119
3.9000000000000004 49367.078768037965 122.86133479336804
4.0 49335.68672058993 120.0094982153004
