# Rounds: 10000, repetitions: 1000
# Good arm ~ N(5.0,0.0), 4 bad arm(s) ~ N(1.0,0.0)
# Observation noise range from 0.5 to 4.0 with step size 0.1

# Observation noise | mean | standard deviation

0.5 49987.691999999945 3.3051565863147703
0.6 49987.59999999993 3.5649275881438425
0.7 49987.38799999995 3.562885087980017
0.7999999999999999 49987.27199999999 3.9075932855512927
0.8999999999999999 49986.98000000007 4.077281474735851
0.9999999999999999 49985.17999999999 4.596164131612875
1.0999999999999999 49980.552000000025 4.864458752930143
1.1999999999999997 49975.07599999997 4.088390751743177
1.2999999999999996 49972.32399999996 2.691889721045492
1.3999999999999995 49970.82000000002 3.231414866903029
1.4999999999999993 49967.915999999976 4.060718339583941
1.5999999999999992 49963.40399999999 4.317339854982844
1.699999999999999 49958.98399999999 3.9778848107465272
1.799999999999999 49954.94000000003 3.770758361207826
1.8999999999999988 49950.87199999998 4.153175274999197
1.9999999999999987 49946.12399999999 4.643078954980419
2.0999999999999988 49941.255999999965 4.611695103943021
2.199999999999999 49936.60800000004 4.510729728401291
2.299999999999999 49931.780000000006 4.825648856567025
2.399999999999999 49926.16399999995 5.206170205458935
2.499999999999999 49921.100000000035 5.249147888329405
2.599999999999999 49915.52399999999 4.980585330082214
2.6999999999999993 49910.33200000006 5.411012387257584
2.7999999999999994 49903.98400000006 5.718080135888351
2.8999999999999995 49897.52400000003 5.824031536946201
2.9999999999999996 49891.695999999996 6.08215229804194
3.0999999999999996 49885.387999999984 6.235409877172226
3.1999999999999997 49879.42000000005 6.5625198412398085
3.3 49872.895999999935 6.616416020850056
3.4 49866.068 6.717775264513176
3.5 49859.64800000003 7.091289190435115
3.6 49852.779999999955 7.212462798491292
3.7 49845.27600000005 7.440106126876047
3.8000000000000003 49838.51999999995 7.780368508890407
3.9000000000000004 49830.80399999998 8.079285788908583
4.0 49823.87600000004 7.700124409119306
