# Rounds: 10000, repetitions: 1000
# Good arm ~ N(5.0,0.0), 4 bad arm(s) ~ N(2.0,0.0)
# Observation noise range from 0.5 to 4.0 with step size 0.1

# Observation noise | mean | standard deviation

0.5 49990.71699999996 4.508129793410367
0.6 49990.26399999998 4.8881692071979685
0.7 49989.928000000036 4.837376997528298
0.7999999999999999 49987.42000000003 5.159090638495855
0.8999999999999999 49982.389000000025 3.8044911818997953
0.9999999999999999 49979.69800000002 3.6436344591729055
1.0999999999999999 49977.889 3.371356558574787
1.1999999999999997 49973.872 3.8608965956785655
1.2999999999999996 49969.32099999999 3.330923903972309
1.3999999999999995 49965.465999999964 3.6518735164542515
1.4999999999999993 49961.29299999997 3.6604029217490894
1.5999999999999992 49956.484000000004 3.710729512307977
1.699999999999999 49951.807 3.6423917990817296
1.799999999999999 49946.54199999999 3.90172519015106
1.8999999999999988 49941.16000000004 4.2928811803763
1.9999999999999987 49935.927999999985 4.188598854075196
2.0999999999999988 49930.183000000005 4.479461639145522
2.199999999999999 49924.46499999998 4.491207626679692
2.299999999999999 49918.21600000005 4.660371558477148
2.399999999999999 49912.75600000001 4.843957878422156
2.499999999999999 49905.99699999999 5.2134605753923875
2.599999999999999 49899.31599999994 5.172707308644118
2.6999999999999993 49892.662 5.329743160994049
2.7999999999999994 49885.716999999975 5.450745051974203
2.8999999999999995 49878.42699999998 5.905043652721012
2.9999999999999996 49871.446000000025 6.14074855313203
3.0999999999999996 49864.35699999993 6.210162406661959
3.1999999999999997 49856.77000000004 6.369903898464643
3.3 49849.273000000016 6.551747583385338
3.4 49841.24500000001 6.7921357545406025
3.5 49833.51099999996 6.945366593428811
3.6 49825.165000000095 7.100295007194413
3.7 49817.44899999995 7.472297788112756
3.8000000000000003 49809.05199999986 7.370591673781754
3.9000000000000004 49800.15100000001 7.572419728233608
4.0 49792.15900000006 7.8259161740951235
