# Rounds: 10000, repetitions: 1000
# Good arm ~ N(5.0,0.0), 4 bad arm(s) ~ N(1.7,0.0)
# Observation noise range from 0.5 to 4.0 with step size 0.1

# Observation noise | mean | standard deviation

0.5 49989.92559999998 3.897313650927166
0.6 49989.81010000006 3.9196468746088318
0.7 49989.51310000002 4.363617713498795
0.7999999999999999 49988.78380000009 4.420520168325132
0.8999999999999999 49985.12409999999 4.85294552517085
0.9999999999999999 49979.72529999993 4.192861791186791
1.0999999999999999 49977.58030000004 2.5478802176723008
1.1999999999999997 49975.43859999994 3.7298957307362754
1.2999999999999996 49971.88120000004 3.9464111190711297
1.3999999999999995 49967.304100000016 3.856112393693372
1.4999999999999993 49963.14939999997 3.5969456011529126
1.5999999999999992 49959.25869999999 3.7523945387954436
1.699999999999999 49954.69150000003 4.050380640550101
1.799999999999999 49949.79759999996 3.8361948113505817
1.8999999999999988 49944.71560000002 3.978696603998053
1.9999999999999987 49939.84149999998 4.34010186910904
2.0999999999999988 49934.54499999993 4.399380587032684
2.199999999999999 49928.799699999974 4.677076539352165
2.299999999999999 49923.31180000004 4.749656829710013
2.399999999999999 49917.59619999996 4.8835473371932245
2.499999999999999 49911.207400000014 5.193063946569603
2.599999999999999 49905.19479999997 5.360954466585626
2.6999999999999993 49899.040300000044 5.527795440538735
2.7999999999999994 49892.29509999997 5.6799831160143945
2.8999999999999995 49886.12080000002 5.739010681608396
2.9999999999999996 49878.77170000002 5.961285602623702
3.0999999999999996 49872.33670000003 6.29793673492591
3.1999999999999997 49865.291199999956 6.313931286314945
3.3 49857.902499999946 6.488710743833009
3.4 49850.305900000065 6.73558782389096
3.5 49843.07229999997 6.894239134469648
3.6 49835.20180000003 7.062666494889629
3.7 49828.09359999998 7.193006212870563
3.8000000000000003 49819.74129999997 7.317221196332429
3.9000000000000004 49812.05889999995 7.461228499432266
4.0 49803.637300000024 7.841431422691883
