# Rounds: 10000, repetitions: 1000
# Good arm ~ N(5.0,2.0), 4 bad arm(s) ~ N(4.4,2.0)
# Observation noise range from 0.5 to 4.0 with step size 0.1

# Observation noise | mean | standard deviation

0.5 48389.02762164865 2556.2884858934826
0.6 48725.40632292182 2318.475627137371
0.7 48911.92823949558 2134.3242108347026
0.7999999999999999 49118.07718689884 1898.4998691863384
0.8999999999999999 49316.254447537554 1658.502853819431
0.9999999999999999 49483.288961562816 1385.3269118981518
1.0999999999999999 49566.906739593294 1263.403717997487
1.1999999999999997 49605.472015049105 1135.4426340700982
1.2999999999999996 49677.812281133665 933.7291044330585
1.3999999999999995 49731.25019661957 719.8195680161762
1.4999999999999993 49767.82506351705 614.8671872034471
1.5999999999999992 49768.28242627871 493.9148695212854
1.699999999999999 49790.05938948507 378.1378398898028
1.799999999999999 49779.68983145273 358.40432625711236
1.8999999999999988 49776.58785759054 260.60379032003766
1.9999999999999987 49763.94241158736 310.79644064882154
2.0999999999999988 49744.859408056254 248.0175375511885
2.199999999999999 49744.994424931276 222.1581051075539
2.299999999999999 49729.28331754686 217.06922776923494
2.399999999999999 49703.12038527319 224.1480521298231
2.499999999999999 49687.20968378765 237.00913286510112
2.599999999999999 49676.35246318277 226.41491340290668
2.6999999999999993 49659.55315715719 211.39418192751444
2.7999999999999994 49637.023295641746 222.25844168201274
2.8999999999999995 49626.601859272014 235.40469478263913
2.9999999999999996 49596.48392152717 227.1273445294115
3.0999999999999996 49564.63069641119 235.0971668117773
3.1999999999999997 49569.92914229943 223.94707487665545
3.3 49539.775150470254 229.55596827190465
3.4 49513.560333577945 234.30917840055417
3.5 49499.404822933226 234.55880400396367
3.6 49471.617153890045 222.3456611990881
3.7 49449.97674760011 231.65985627206956
3.8000000000000003 49435.42377924315 231.57954925384948
3.9000000000000004 49407.69252058523 235.02361867551872
4.0 49382.89769877639 234.75660548648875
