# Rounds: 10000, repetitions: 1000
# Good arm ~ N(5.0,2.0), 4 bad arm(s) ~ N(3.7,2.0)
# Observation noise range from 0.5 to 4.0 with step size 0.1

# Observation noise | mean | standard deviation

0.5 48626.55234924887 3808.322115213499
0.6 48892.94749900698 3413.6732208331077
0.7 49189.290403436346 2870.3081727852627
0.7999999999999999 49524.98114259514 2102.3799523067946
0.8999999999999999 49658.61271626269 1726.5629685162162
0.9999999999999999 49731.089594481564 1421.9863608305075
1.0999999999999999 49812.17386146214 1124.8646103363014
1.1999999999999997 49829.54753125151 916.9666800487834
1.2999999999999996 49863.18646439075 673.0172350106545
1.3999999999999995 49878.09944304947 707.869256541512
1.4999999999999993 49897.49709150201 270.4209311633742
1.5999999999999992 49911.68405914748 241.48908068834626
1.699999999999999 49870.161836807725 374.6467120855565
1.799999999999999 49878.95333394823 215.28842202839985
1.8999999999999988 49872.44333081244 456.7649671417582
1.9999999999999987 49868.28657487235 203.1677160413987
2.0999999999999988 49867.94226438308 206.95860313231884
2.199999999999999 49860.176808371936 209.01146460744803
2.299999999999999 49848.47907887113 206.88714793922065
2.399999999999999 49835.73963128536 209.59780047905912
2.499999999999999 49829.516173046344 210.49617984499903
2.599999999999999 49810.184358009115 209.0496161888098
2.6999999999999993 49788.540004411894 202.0136101647473
2.7999999999999994 49791.86878887329 203.62791645802983
2.8999999999999995 49780.60309489358 205.55863934925262
2.9999999999999996 49762.86376744348 206.8221753897542
3.0999999999999996 49751.68744491222 207.07806724460744
3.1999999999999997 49727.18797234863 205.43558431004564
3.3 49723.132873345545 208.52900523694996
3.4 49709.79424785677 217.6190473058767
3.5 49715.901318241515 210.36843457938488
3.6 49677.083164950825 219.92697000951497
3.7 49673.96232663247 207.42398060130873
3.8000000000000003 49666.666740096596 208.3864388118227
3.9000000000000004 49644.84496553053 207.59625927045684
4.0 49626.62596242769 206.25107945402954
