# Rounds: 10000, repetitions: 1000
# Good arm ~ N(5.0,0.0), 4 bad arm(s) ~ N(2.7,0.0)
# Observation noise range from 0.5 to 4.0 with step size 0.1

# Observation noise | mean | standard deviation

0.5 49992.31320000003 5.898197563197033
0.6 49990.54220000006 5.4553313189764125
0.7 49986.006600000015 4.524226460408688
0.7999999999999999 49984.191900000034 3.9555645464187044
0.8999999999999999 49981.208800000066 3.7921290593552084
0.9999999999999999 49977.043499999956 3.232256987807711
1.0999999999999999 49973.10820000002 3.594544966128211
1.1999999999999997 49968.60709999998 3.1363858988511915
1.2999999999999996 49963.81620000001 3.167878314110265
1.3999999999999995 49958.724 3.2229258836122834
1.4999999999999993 49953.31900000004 3.4907025086657804
1.5999999999999992 49947.601200000005 3.252743288196236
1.699999999999999 49942.044400000006 3.579466611274218
1.799999999999999 49935.51700000003 3.860107696870539
1.8999999999999988 49929.60139999998 3.8714604797480465
1.9999999999999987 49922.80260000007 3.998547438962148
2.0999999999999988 49916.105000000025 4.418868792056215
2.199999999999999 49909.255599999975 4.465428164096059
2.299999999999999 49901.99449999998 4.4732236116127835
2.399999999999999 49894.28259999998 4.754511817488059
2.499999999999999 49886.8835 4.939159143321517
2.599999999999999 49879.21989999995 5.294163026595215
2.6999999999999993 49871.609199999955 5.265556137907465
2.7999999999999994 49863.023300000044 5.524468015734609
2.8999999999999995 49854.499499999896 5.699135890634224
2.9999999999999996 49846.440299999966 5.947163581463458
3.0999999999999996 49837.58760000002 5.892499281951864
3.1999999999999997 49828.799299999984 6.0420522925515625
3.3 49819.96729999997 6.474949086726559
3.4 49810.74429999996 6.734285270771534
3.5 49801.46839999999 7.046909988101398
3.6 49792.12580000005 7.026270905883469
3.7 49782.378400000016 7.086923021872135
3.8000000000000003 49772.902400000006 7.309643296711074
3.9000000000000004 49762.29939999998 7.165236929807994
4.0 49752.703799999974 7.940925882030555
