# Rounds: 10000, repetitions: 1000
# Good arm ~ N(5.0,0.0), 4 bad arm(s) ~ N(3.6,0.0)
# Observation noise range from 0.5 to 4.0 with step size 0.1

# Observation noise | mean | standard deviation

0.5 49990.22859999993 5.175659328964381
0.6 49986.51859999995 4.183055341731546
0.7 49982.920599999976 3.0587140061427065
0.7999999999999999 49977.99260000003 3.150274507002371
0.8999999999999999 49972.69919999996 3.2072114937384764
0.9999999999999999 49966.88080000005 2.8541369023683605
1.0999999999999999 49960.58219999999 2.526885099942648
1.1999999999999997 49953.89020000004 2.5529476104117665
1.2999999999999996 49946.88320000002 2.7483214933916402
1.3999999999999995 49939.51779999999 2.9245711268979635
1.4999999999999993 49931.61200000007 3.0196712427720738
1.5999999999999992 49923.57319999998 3.0674241393816755
1.699999999999999 49914.93239999993 3.536995982552604
1.799999999999999 49906.06200000002 3.509334898729979
1.8999999999999988 49897.19300000003 3.8672971164631154
1.9999999999999987 49887.601599999995 3.9501900513092045
2.0999999999999988 49877.96259999998 4.149460116603038
2.199999999999999 49868.02260000002 4.323088981083032
2.299999999999999 49857.9286 4.448056569702187
2.399999999999999 49847.60499999993 4.6944107716005465
2.499999999999999 49836.51559999993 5.133960868007001
2.599999999999999 49826.033799999896 5.124556433358131
2.6999999999999993 49814.39559999998 5.1887748095342205
2.7999999999999994 49803.110199999974 5.379519978142102
2.8999999999999995 49791.826199999996 5.648091225762129
2.9999999999999996 49779.62659999997 5.968141348124253
3.0999999999999996 49767.49139999993 5.995554412458423
3.1999999999999997 49755.6754 6.299584081480813
3.3 49742.87379999995 6.326564547921969
3.4 49730.30179999993 6.754170235908185
3.5 49717.3546 7.0635424874871635
3.6 49704.53479999993 7.194758752979481
3.7 49691.34819999992 7.114349635123739
3.8000000000000003 49678.234399999936 7.078290672110954
3.9000000000000004 49664.626399999936 7.632291590012639
4.0 49650.47659999999 7.910131643828691
