# Rounds: 10000, repetitions: 1000
# Good arm ~ N(5.0,0.0), 4 bad arm(s) ~ N(1.3,0.0)
# Observation noise range from 0.5 to 4.0 with step size 0.1

# Observation noise | mean | standard deviation

0.5 49988.74219999999 3.2457532367797315
0.6 49988.290799999966 4.0614961665747105
0.7 49988.27599999999 4.121542321886546
0.7999999999999999 49988.09469999999 4.160655352580032
0.8999999999999999 49986.77379999999 4.67742363399331
0.9999999999999999 49983.49929999997 4.943432717963208
1.0999999999999999 49978.05290000003 3.5755189729510053
1.1999999999999997 49974.808000000055 3.223800379813796
1.2999999999999996 49973.19480000003 3.20329737521693
1.3999999999999995 49970.316200000016 3.720542971126036
1.4999999999999993 49965.72449999998 4.083420633986394
1.5999999999999992 49961.36219999999 3.7342195376754903
1.699999999999999 49957.31440000005 3.6598862560755294
1.799999999999999 49953.34429999992 4.31306039837036
1.8999999999999988 49948.72299999989 4.297815982822921
1.9999999999999987 49943.8316 4.215848054046736
2.0999999999999988 49938.96980000005 4.682928333615797
2.199999999999999 49933.86009999996 4.762991084818982
2.299999999999999 49928.29529999993 4.810468638137762
2.399999999999999 49922.704600000056 5.1473521420310275
2.499999999999999 49917.147199999985 4.986469395978677
2.599999999999999 49911.54540000002 5.25276406954988
2.6999999999999993 49905.48849999999 5.5601450487334425
2.7999999999999994 49899.6869 5.563417115406102
2.8999999999999995 49893.319200000005 5.885994928326043
2.9999999999999996 49887.4214 6.07003850131036
3.0999999999999996 49880.939 6.041053991922591
3.1999999999999997 49873.90530000003 6.4131185861469975
3.3 49867.29339999996 6.4101658844880705
3.4 49860.300400000044 6.949565187570033
3.5 49853.49239999998 6.950511625185251
3.6 49845.629899999956 7.259472152016878
3.7 49838.83669999996 7.051729575074828
3.8000000000000003 49831.25170000001 7.194668885386574
3.9000000000000004 49824.21430000003 7.815798885731478
4.0 49816.11500000011 8.06247595459963
