# Rounds: 10000, repetitions: 1000
# Good arm ~ N(5.0,0.0), 10 bad arm(s) ~ N(3.0,0.0)
# Observation noise range from 0.5 to 8.0 with step size 0.1

# Observation noise | mean | standard deviation

0.5 49979.49399999996 5.914299869210487
0.6 49967.57599999999 4.893686971208148
0.7 49962.08200000001 3.913130280042846
0.7999999999999999 49953.783999999956 4.2656229954766856
0.8999999999999999 49942.84400000002 3.3578175857152646
0.9999999999999999 49932.64399999993 3.7436986095676987
1.0999999999999999 49920.537999999986 3.8932908591208446
1.1999999999999997 49908.1 4.1152077632769695
1.2999999999999996 49894.59000000003 4.312597650894256
1.3999999999999995 49880.946000000025 4.584987034453468
1.4999999999999993 49865.737999999976 4.807751082415876
1.5999999999999992 49850.67399999999 5.199688525360062
1.699999999999999 49834.494000000035 5.49127654722641
1.799999999999999 49818.27399999995 5.488446688002664
1.8999999999999988 49800.56400000003 5.932039539070315
1.9999999999999987 49782.836 6.539714968702481
2.0999999999999988 49763.86399999999 6.44103958930478
2.199999999999999 49745.80999999993 6.8312931840587305
2.299999999999999 49726.613999999994 7.306736097081363
2.399999999999999 49706.74200000006 7.563771985368628
2.499999999999999 49686.14599999994 7.818939814311171
2.599999999999999 49665.77800000001 7.782241276089975
2.6999999999999993 49643.72599999995 8.331286475349165
2.7999999999999994 49622.371999999916 8.730741196590472
2.8999999999999995 49600.09599999998 9.067359097388886
2.9999999999999996 49578.525999999925 9.497237573185238
3.0999999999999996 49554.46599999995 9.531510567255056
3.1999999999999997 49531.44400000001 9.693752257657042
3.3 49507.522 9.84827418914119
3.4 49483.10000000005 10.48980629163549
3.5 49458.53999999999 10.703595982984764
3.6 49433.70200000001 11.026185776268024
3.7 49408.21799999999 11.215625986375622
3.8000000000000003 49382.304000000026 11.427255408284392
3.9000000000000004 49356.691999999966 12.005051322558328
4.0 49330.13400000001 12.257417684336792
4.1 49303.28599999999 12.25660754158461
4.199999999999999 49276.053999999946 12.948387727618739
4.299999999999999 49250.18399999992 13.379729487592732
4.399999999999999 49220.91400000002 14.015171387786568
4.499999999999998 49194.246000000014 13.371547490185339
4.599999999999998 49165.13400000008 14.200693775435973
4.6999999999999975 49136.92799999996 13.642467992740011
4.799999999999997 49107.195999999996 14.52158601739005
4.899999999999997 49078.95399999998 15.23607633290204
4.9999999999999964 49049.37199999997 15.098926902054602
5.099999999999996 49021.620000000046 15.293184151166368
5.199999999999996 48989.76199999999 15.77086161489196
5.299999999999995 48959.79199999999 16.43322204519818
5.399999999999995 48929.96799999991 16.464691374637614
5.499999999999995 48897.95600000002 16.96460615109753
5.599999999999994 48868.22600000001 16.96008751653622
5.699999999999994 48836.38400000003 18.279022585102005
5.799999999999994 48805.20799999996 17.607576856647846
5.899999999999993 48774.215999999986 18.205185326515544
5.999999999999993 48741.742000000064 18.139196963109136
6.0999999999999925 48710.005999999914 19.87790469579475
6.199999999999992 48677.690000000046 18.421380166731502
6.299999999999992 48644.87999999997 19.284125011974986
6.3999999999999915 48612.92600000008 19.938406758416225
6.499999999999991 48580.33799999994 20.131244944687953
6.599999999999991 48546.47199999999 20.955007237610996
6.69999999999999 48512.381999999976 20.019161891618694
6.79999999999999 48479.383999999955 21.49443077996149
6.89999999999999 48446.08 21.32492326720893
6.999999999999989 48413.12799999993 22.042265706534682
7.099999999999989 48378.402000000046 22.36771581343779
7.199999999999989 48342.998 21.99217250868241
7.299999999999988 48308.99399999994 22.974677360080616
7.399999999999988 48274.62999999996 23.65643098032191
7.499999999999988 48238.66600000008 24.013435595288936
7.599999999999987 48205.615999999995 22.734145802853188
7.699999999999987 48171.19400000002 24.573038033548016
7.7999999999999865 48134.28599999998 24.28736461784359
7.899999999999986 48099.790000000045 24.63840398546435
7.999999999999986 48063.262000000024 26.156213477938575
