# Rounds: 10000, repetitions: 1000
# Good arm ~ N(5.0,0.0), 10 bad arm(s) ~ N(1.0,0.0)
# Observation noise range from 0.5 to 8.0 with step size 0.1

# Observation noise | mean | standard deviation

0.5 49964.284000000014 2.370857432441916
0.6 49964.07600000004 2.8401215273805143
0.7 49963.86800000001 3.7089529967812314
0.7999999999999999 49963.731999999996 3.232742895224865
0.8999999999999999 49962.78400000002 4.382299459022498
0.9999999999999999 49958.65600000002 5.603665324148595
1.0999999999999999 49947.35600000001 6.8993380019292685
1.1999999999999997 49932.95600000002 5.506031273102243
1.2999999999999996 49924.82399999996 3.2365876319820943
1.3999999999999995 49921.20400000003 3.8932687476645884
1.4999999999999993 49914.78400000006 5.480088993381051
1.5999999999999992 49903.436000000045 6.490302614518717
1.699999999999999 49891.6 5.9136258734359055
1.799999999999999 49881.519999999946 5.488873083587127
1.8999999999999988 49871.871999999996 6.403797672055638
1.9999999999999987 49860.79599999995 7.035330829454924
2.0999999999999988 49848.351999999955 7.011794439461389
2.199999999999999 49836.467999999986 7.122338359254115
2.299999999999999 49824.41999999998 7.553055583580002
2.399999999999999 49811.64399999997 7.992067137927258
2.499999999999999 49798.56799999998 8.402617448151434
2.599999999999999 49785.143999999964 8.623086548424698
2.6999999999999993 49770.695999999974 9.171679437469594
2.7999999999999994 49757.25999999999 8.881175331862124
2.8999999999999995 49742.51999999999 9.63942521722738
2.9999999999999996 49727.23999999998 9.628452996567287
3.0999999999999996 49711.712000000036 10.072264219454677
3.1999999999999997 49696.47199999997 9.997457935153506
3.3 49680.068 9.963867454691146
3.4 49664.45199999997 10.603590530199233
3.5 49648.19999999999 10.870426218238395
3.6 49630.815999999984 11.092032148221508
3.7 49613.14799999996 11.645501866116227
3.8000000000000003 49597.183999999994 11.589152361257925
3.9000000000000004 49579.69600000008 11.692232134724964
4.0 49561.068000000014 12.444043966100072
4.1 49542.84399999998 13.724285774495419
4.199999999999999 49523.97200000001 13.313469287322011
4.299999999999999 49504.687999999995 13.322467644702584
4.399999999999999 49486.24399999999 13.189785230792557
4.499999999999998 49466.583999999944 13.562702197235362
4.599999999999998 49447.81199999999 14.338558164970783
4.6999999999999975 49427.36799999997 14.590320539777457
4.799999999999997 49406.65999999997 15.363086422474545
4.899999999999997 49386.96799999995 15.476902484363801
4.9999999999999964 49366.483999999895 15.779947742332821
5.099999999999996 49344.75199999998 15.407526988062985
5.199999999999996 49324.119999999995 15.980769223819598
5.299999999999995 49302.90000000001 15.704669262249396
5.399999999999995 49280.77200000008 16.943999383708448
5.499999999999995 49258.87600000004 17.1036007073704
5.599999999999994 49237.96 16.424986459056303
5.699999999999994 49215.079999999965 17.580405873320036
5.799999999999994 49191.15599999999 18.074909857766
5.899999999999993 49169.93599999996 17.847869633389102
5.999999999999993 49145.48400000004 18.914002312664415
6.0999999999999925 49121.82400000001 20.050612236314592
6.199999999999992 49098.112 19.439479142954113
6.299999999999992 49075.607999999986 19.837536738815526
6.3999999999999915 49051.25999999991 19.6521400006871
6.499999999999991 49027.412000000055 21.017706820678836
6.599999999999991 49003.508 20.758729750658073
6.69999999999999 48977.13600000003 20.70425488082529
6.79999999999999 48954.21599999998 21.22252906087609
6.89999999999999 48928.41600000001 21.491412815932275
6.999999999999989 48902.616 21.570299530183302
7.099999999999989 48878.29199999997 22.466407711858793
7.199999999999989 48852.404 22.42578203095042
7.299999999999988 48826.28799999998 23.520847907469104
7.399999999999988 48800.07200000004 22.98702284375277
7.499999999999988 48773.316000000006 23.232561113572693
7.599999999999987 48747.556000000004 23.8650456610586
7.699999999999987 48720.808000000034 24.497249871184533
7.7999999999999865 48692.91199999996 23.87337835737106
7.899999999999986 48667.98000000001 23.520050867138806
7.999999999999986 48639.98400000001 24.48279296059073
