# Rounds: 10000, repetitions: 1000
# Good arm ~ N(5.0,0.0), 10 bad arm(s) ~ N(4.5,0.0)
# Observation noise range from 0.5 to 8.0 with step size 0.1

# Observation noise | mean | standard deviation

0.5 49942.971999999994 1.5412954264486642
0.6 49921.00299999997 1.8677471669044308
0.7 49896.63849999998 2.140361861671742
0.7999999999999999 49870.09400000002 2.485425786729781
0.8999999999999999 49841.60300000005 2.696973241369811
0.9999999999999999 49811.11199999996 3.066489745516725
1.0999999999999999 49778.78849999998 3.426917202313392
1.1999999999999997 49744.826 3.761099555963618
1.2999999999999996 49709.586500000005 3.9972798245802243
1.3999999999999995 49672.89550000008 4.224354971463136
1.4999999999999993 49634.85799999996 4.500954853649896
1.5999999999999992 49595.39450000005 4.670967532287904
1.699999999999999 49555.455 5.304537030987133
1.799999999999999 49514.228500000005 5.492240203455403
1.8999999999999988 49471.650000000045 5.914175976201385
1.9999999999999987 49429.18450000003 6.088290156277625
2.0999999999999988 49385.00750000001 6.367592951028629
2.199999999999999 49340.854499999994 6.57489992768401
2.299999999999999 49295.387000000024 7.221730013257476
2.399999999999999 49249.38999999999 7.608632682111153
2.499999999999999 49203.04800000001 7.281154524607455
2.599999999999999 49156.48349999994 7.895746992563108
2.6999999999999993 49108.624499999976 8.225990315254888
2.7999999999999994 49061.65350000002 8.348555931185661
2.8999999999999995 49013.71999999997 9.296506065454027
2.9999999999999996 48965.48800000003 8.853346132267589
3.0999999999999996 48917.288499999995 9.519855324289038
3.1999999999999997 48869.136999999995 9.813614932227525
3.3 48820.194499999976 9.754694963135638
3.4 48771.934999999954 10.452489154719611
3.5 48723.79799999997 10.452748727294406
3.6 48674.664500000035 10.889502790349125
3.7 48625.82949999999 11.270501495228892
3.8000000000000003 48577.773000000016 11.445674924375226
3.9000000000000004 48529.73449999997 11.799300116245613
4.0 48482.179500000006 12.032177818377352
4.1 48434.4435 12.658289380482703
4.199999999999999 48386.99200000004 12.344039505417523
4.299999999999999 48339.6475 12.904825774813009
4.399999999999999 48293.90250000003 12.99446420018349
4.499999999999998 48246.05549999999 13.372415310677411
4.599999999999998 48200.983499999944 14.318466965644372
4.6999999999999975 48155.76250000006 14.368552434015413
4.799999999999997 48109.778000000064 14.271769315659554
4.899999999999997 48065.45400000002 14.826216668479573
4.9999999999999964 48020.9725 15.541075212763314
5.099999999999996 47977.51650000001 15.05362379426764
5.199999999999996 47934.04149999999 15.234898420399018
5.299999999999995 47892.57 15.64278737299715
5.399999999999995 47849.7335 16.07349012613106
5.499999999999995 47808.63650000004 15.415633607137634
5.599999999999994 47768.35349999997 16.371769072784115
5.699999999999994 47729.231 15.75529651794491
5.799999999999994 47688.327999999936 17.105686788916767
5.899999999999993 47649.16699999998 16.79399145972003
5.999999999999993 47611.83799999996 16.814323580729457
6.0999999999999925 47574.75550000003 17.42672259521025
6.199999999999992 47537.87850000001 17.33663885523364
6.299999999999992 47501.139500000005 17.62816047668595
6.3999999999999915 47464.56550000001 18.00597608920235
6.499999999999991 47431.30699999998 17.70973985935099
6.599999999999991 47395.64450000003 17.23382936623848
6.69999999999999 47362.61050000003 17.666724453132282
6.79999999999999 47330.762999999984 18.853707680275864
6.89999999999999 47298.15450000002 18.179036198520084
6.999999999999989 47266.83450000006 18.538339455835295
7.099999999999989 47234.93649999998 18.959197475603226
7.199999999999989 47205.646500000046 19.028370046239306
7.299999999999988 47175.37049999997 19.373624262565514
7.399999999999988 47148.18900000005 19.24803277651424
7.499999999999988 47118.11749999998 20.124187602899088
7.599999999999987 47091.64050000001 19.474400170788552
7.699999999999987 47063.901000000034 20.156499782538784
7.7999999999999865 47037.67399999998 19.920731903209806
7.899999999999986 47012.70099999997 19.909230936338883
7.999999999999986 46985.631000000016 18.937752703989986
