# Rounds: 10000, repetitions: 1000
# Good arm ~ N(5.0,0.0), 10 bad arm(s) ~ N(4.9,0.0)
# Observation noise range from 0.5 to 8.0 with step size 0.1

# Observation noise | mean | standard deviation

0.5 49832.10360000056 1.4675083034118708
0.6 49779.69940000081 1.8185617412530184
0.7 49726.008000001195 2.0508002783557924
0.7999999999999999 49672.64490000151 2.3871054149640325
0.8999999999999999 49620.40500000211 2.5636355488042777
0.9999999999999999 49570.893100002424 2.8016551646299255
1.0999999999999999 49524.381500003 2.959917035774374
1.1999999999999997 49481.7081000034 3.244461576392748
1.2999999999999996 49443.16560000382 3.2575647910853425
1.3999999999999995 49408.83390000423 3.3361850848929153
1.4999999999999993 49378.42280000458 3.3836029507995504
1.5999999999999992 49351.73950000496 3.4052085391241635
1.699999999999999 49328.48670000519 3.473631993884648
1.799999999999999 49308.210700005504 3.3120122183737135
1.8999999999999988 49290.090700005705 3.375564833871728
1.9999999999999987 49274.81750000595 3.208160850985405
2.0999999999999988 49261.14190000604 3.233671446013365
2.199999999999999 49249.123400006225 3.1670495168843726
2.299999999999999 49238.511800006396 3.144361265428491
2.399999999999999 49229.3009000065 3.012856866210616
2.499999999999999 49220.85910000658 2.8625043442628253
2.599999999999999 49213.37240000664 2.923803493167655
2.6999999999999993 49206.78150000678 2.8210079467517484
2.7999999999999994 49200.72280000683 2.943389832062896
2.8999999999999995 49195.157000006795 2.7896008446888274
2.9999999999999996 49190.33130000689 2.720443184656681
3.0999999999999996 49185.767000006985 2.73945535014442
3.1999999999999997 49181.62300000711 2.746225182421999
3.3 49177.88190000707 2.678072901227786
3.4 49174.275100007115 2.672311965521915
3.5 49171.1522000072 2.624176339596591
3.6 49168.179300007156 2.5737221208577794
3.7 49165.55240000717 2.606166983557141
3.8000000000000003 49163.142300007275 2.533720673298586
3.9000000000000004 49160.70140000734 2.561882370665436
4.0 49158.41540000724 2.475304015636487
4.1 49156.187400007366 2.5121329685957723
4.199999999999999 49154.22530000732 2.526593276217742
4.299999999999999 49152.53560000741 2.507233307594577
4.399999999999999 49150.57230000742 2.5681156375392185
4.499999999999998 49149.38720000739 2.5114225855594094
4.599999999999998 49147.505400007445 2.4160646117337263
4.6999999999999975 49146.07240000741 2.4748137188088837
4.799999999999997 49144.75180000751 2.383190373475465
4.899999999999997 49143.38210000749 2.478550544706584
4.9999999999999964 49142.21520000757 2.4225271097472922
5.099999999999996 49141.09130000757 2.3686546465677774
5.199999999999996 49139.85360000752 2.3454825363246217
5.299999999999995 49138.77500000756 2.532024120342495
5.399999999999995 49137.79400000756 2.4010558237863435
5.499999999999995 49136.83250000755 2.440161498345049
5.599999999999994 49135.91470000752 2.385293175566039
5.699999999999994 49134.86040000766 2.416031673824104
5.799999999999994 49134.08510000762 2.4031069291204212
5.899999999999993 49133.33030000753 2.3619802837314117
5.999999999999993 49132.55920000762 2.275366487522125
6.0999999999999925 49131.702300007615 2.3255091276077926
6.199999999999992 49131.018900007686 2.3406690328617152
6.299999999999992 49130.339400007666 2.378668893642326
6.3999999999999915 49129.775100007646 2.3601313967851905
6.499999999999991 49128.82560000773 2.434191843260426
6.599999999999991 49128.242300007696 2.2913251364144998
6.69999999999999 49127.773300007684 2.3907682620367763
6.79999999999999 49127.089200007635 2.381922945184449
6.89999999999999 49126.523900007705 2.349425161283993
6.999999999999989 49125.84070000767 2.3594576814251855
7.099999999999989 49125.491000007656 2.4169734712308997
7.199999999999989 49125.07270000772 2.3550904783150295
7.299999999999988 49124.39600000774 2.466817623793518
7.399999999999988 49124.03910000772 2.36214328752493
7.499999999999988 49123.53630000767 2.3353771207637295
7.599999999999987 49123.16000000774 2.384362637073616
7.699999999999987 49122.60760000772 2.40519587707328
7.7999999999999865 49122.21590000769 2.4152413089510687
7.899999999999986 49121.797500007735 2.3915357394534813
7.999999999999986 49121.458400007774 2.333524110582447
