# Rounds: 10000, repetitions: 1000
# Good arm ~ N(5.0,0.0), 10 bad arm(s) ~ N(0.0,0.0)
# Observation noise range from 0.5 to 8.0 with step size 0.1

# Observation noise | mean | standard deviation

0.5 49954.68999999995 1.5988922591771164
0.6 49954.62499999991 1.5610290874329702
0.7 49954.56000000002 2.0274393974939198
0.7999999999999999 49954.345 2.646314036160116
0.8999999999999999 49954.23499999995 2.9065827397862414
0.9999999999999999 49953.89499999998 3.1723869623737415
1.0999999999999999 49953.22999999998 3.9284262157424554
1.1999999999999997 49949.60999999993 5.707931366132656
1.2999999999999996 49940.86499999997 7.377750755223797
1.3999999999999995 49925.21500000005 7.920954268048529
1.4999999999999993 49911.524999999965 5.525387308135457
1.5999999999999992 49904.90999999998 3.354571977637844
1.699999999999999 49901.46500000001 4.14076332587619
1.799999999999999 49895.41500000002 6.383064978403291
1.8999999999999988 49886.4150000001 7.850758524461706
1.9999999999999987 49873.97500000002 7.999272677147872
2.0999999999999988 49861.43999999994 7.357345345335619
2.199999999999999 49851.16999999994 6.661491985694807
2.299999999999999 49841.554999999986 7.413631831763477
2.399999999999999 49831.01999999995 8.460566244713247
2.499999999999999 49818.96500000002 9.010269694074694
2.599999999999999 49805.96500000003 8.813140555241795
2.6999999999999993 49793.764999999985 8.653013905550354
2.7999999999999994 49781.749999999956 9.084053061272895
2.8999999999999995 49768.80000000002 9.661953909709663
2.9999999999999996 49754.39 9.535136014699555
3.0999999999999996 49741.12500000002 9.749586115801456
3.1999999999999997 49727.019999999975 10.277413352844533
3.3 49712.36499999996 10.594527786504539
3.4 49698.46500000003 10.942509470569895
3.5 49683.379999999954 11.117517672538154
3.6 49667.92500000003 11.348928283021772
3.7 49652.42500000004 12.375278684640731
3.8000000000000003 49636.32000000003 12.208876142244105
3.9000000000000004 49619.51999999997 12.035965456267466
4.0 49603.41999999993 12.851800215097006
4.1 49587.73499999996 13.231396178969385
4.199999999999999 49570.70499999998 13.46511360086817
4.299999999999999 49553.93000000001 14.161767391666071
4.399999999999999 49536.56999999994 13.677432952574499
4.499999999999998 49519.144999999975 14.901880453185855
4.599999999999998 49500.759999999944 14.4959488317437
4.6999999999999975 49482.74000000002 14.874934072582011
4.799999999999997 49464.260000000024 14.77906698072711
4.899999999999997 49446.784999999974 15.37775179440235
4.9999999999999964 49426.22500000002 15.949255586194285
5.099999999999996 49407.59500000001 16.615265331677506
5.199999999999996 49388.16999999998 16.355996411671804
5.299999999999995 49367.88000000004 17.118663751842593
5.399999999999995 49348.56000000001 17.47517615881981
5.499999999999995 49328.734999999986 18.085958002740146
5.599999999999994 49308.05500000007 17.42112138957966
5.699999999999994 49287.04000000004 17.722937186101515
5.799999999999994 49266.955000000016 17.979884628418734
5.899999999999993 49245.10000000004 19.05526444589787
5.999999999999993 49223.789999999964 19.633424850783804
6.0999999999999925 49203.14999999999 18.93108253338639
6.199999999999992 49181.20499999995 19.818318312630367
6.299999999999992 49160.029999999955 20.204140845561945
6.3999999999999915 49137.40500000002 19.833919414965806
6.499999999999991 49115.415 21.167211101744655
6.599999999999991 49091.41999999998 21.44279350722264
6.69999999999999 49070.24499999995 20.872245342215205
6.79999999999999 49046.30500000001 21.857486697347493
6.89999999999999 49022.050000000054 22.75665540815189
6.999999999999989 49000.789999999986 22.127257297629892
7.099999999999989 48976.075 22.92913256362136
7.199999999999989 48951.225000000006 22.69889016261814
7.299999999999988 48928.58999999991 23.196982562393664
7.399999999999988 48903.025 22.983747031927198
7.499999999999988 48879.25499999996 24.634870648165595
7.599999999999987 48853.66000000003 24.205170734582513
7.699999999999987 48829.130000000005 23.994141343645015
7.7999999999999865 48804.35499999996 23.183970140411002
7.899999999999986 48778.64999999998 24.08542313532418
7.999999999999986 48754.53499999993 25.660616560056354
