# Rounds: 10000, repetitions: 1000
# Good arm ~ N(5.0,2.0), 49 bad arm(s) ~ N(3.0,2.0)
# Observation noise range from 0.1 to 10.0 with step size 0.1

# Observation noise | mean | standard deviation

0.1 46518.57166752919 7213.688902976338
0.2 47126.63084026308 6565.347329639951
0.30000000000000004 47932.939106822276 5481.850096028012
0.4000000000000001 48627.91225739215 4283.7845538656775
0.5000000000000001 48761.54969145487 3997.9018275344856
0.6000000000000001 48981.554270177774 3346.825901087909
0.7000000000000001 49205.63416805061 2716.4237653786263
0.8 49229.007404134674 2415.229595325346
0.9 49373.64286817958 1711.8256002702901
1.0 49404.97790783674 1219.341136940921
1.1 49439.38306086126 841.8604412399815
1.2000000000000002 49434.67164208019 450.27665332664236
1.3000000000000003 49366.65806323656 792.9082336890947
1.4000000000000004 49343.515747797195 401.56013750560425
1.5000000000000004 49290.760524466925 249.61789238465673
1.6000000000000005 49209.59611324168 293.0951023637301
1.7000000000000006 49144.25109307842 240.98421558189526
1.8000000000000007 49067.5692362618 274.7218675524606
1.9000000000000008 48984.1964117663 336.65182617438296
2.000000000000001 48898.66962808223 247.44428392626384
2.100000000000001 48810.99432895631 211.68152903607182
2.200000000000001 48731.68891959995 228.76744749088573
2.300000000000001 48645.434469749605 241.75857783992234
2.4000000000000012 48542.65631641705 230.64975578323956
2.5000000000000013 48448.214439518866 232.09049718704372
2.6000000000000014 48340.43403321355 247.97300559111028
2.7000000000000015 48253.11559335463 233.6627950109294
2.8000000000000016 48153.66510356511 231.1500096265703
2.9000000000000017 48032.87872811011 244.24750350613206
3.0000000000000018 47930.30159300156 242.59998333965416
3.100000000000002 47839.37473242726 243.5943513695479
3.200000000000002 47719.0755573921 247.5094915178096
3.300000000000002 47595.76523318936 250.94742531634552
3.400000000000002 47494.2919545084 248.4063145360182
3.500000000000002 47378.296454819356 261.52491846500055
3.6000000000000023 47267.820869870986 265.5921204991332
3.7000000000000024 47143.8219004308 267.6319040980429
3.8000000000000025 47033.84237453948 256.9234654677374
3.9000000000000026 46904.750114565664 266.3891861352375
4.000000000000003 46798.60916104998 265.6469878282201
4.100000000000003 46653.12654700898 271.80978167977725
4.200000000000004 46521.440857981885 264.991644436016
4.300000000000004 46418.34426419613 269.24566151897227
4.400000000000005 46285.31491866496 272.6987805689017
4.500000000000005 46159.018441506654 277.0513008038606
4.600000000000006 46027.368501424164 284.8441988444873
4.700000000000006 45885.35438044598 282.1932747196057
4.800000000000007 45764.71505995449 289.0728193332637
4.9000000000000075 45641.10367479354 296.9270692751456
5.000000000000008 45519.75214235079 286.0902148257109
5.1000000000000085 45372.33899679399 301.61490989934566
5.200000000000009 45232.52167468079 303.1107819100487
5.30000000000001 45094.184605436385 306.04886942425685
5.40000000000001 44970.04195051736 307.6718020429633
5.500000000000011 44852.71415549205 317.57660119809634
5.600000000000011 44707.217174395766 317.3533742607844
5.700000000000012 44572.13966735921 311.7562421565872
5.800000000000012 44423.51395885346 319.76054391219475
5.900000000000013 44289.83708751603 330.6008124605925
6.000000000000013 44145.509474799976 338.5609880395249
6.100000000000014 44008.65519928933 333.75531858463654
6.200000000000014 43881.37081463166 349.3764673014429
6.300000000000015 43737.08005125415 334.4770098305827
6.4000000000000155 43600.09065207088 339.13733667672335
6.500000000000016 43457.177173569464 360.22665356669376
6.6000000000000165 43315.945905600165 374.10682439522395
6.700000000000017 43200.67304192002 367.5762554911339
6.800000000000018 43058.63169431072 361.2797579241019
6.900000000000018 42908.06641326804 362.1310556142962
7.000000000000019 42766.4888373841 375.4350705316226
7.100000000000019 42640.1241462715 358.77460017289985
7.20000000000002 42528.197540032335 373.3796228990945
7.30000000000002 42340.23182493776 385.6729480894749
7.400000000000021 42231.71936578114 384.0123564258694
7.500000000000021 42084.3291107348 371.9896780602517
7.600000000000022 41953.19995616064 388.1621348177829
7.700000000000022 41806.43884234409 400.27118130708305
7.800000000000023 41672.157316773606 395.82958702929966
7.9000000000000234 41561.39582796509 409.47921067972425
8.000000000000025 41395.15010696132 397.1849718204464
8.100000000000026 41249.83949693283 411.41018997235375
8.200000000000028 41129.58073861945 423.8399960014627
8.30000000000003 41003.02531804071 408.27601415170307
8.40000000000003 40855.275453290444 414.9174087468046
8.500000000000032 40742.48346547674 420.170110158875
8.600000000000033 40631.16288790843 422.90419124305913
8.700000000000035 40466.87315841203 435.7450396281236
8.800000000000036 40336.88299327854 431.10719919976503
8.900000000000038 40210.307773773166 437.21971193224414
9.000000000000039 40089.252339891515 418.5637307030301
9.10000000000004 39955.81762315387 440.09830387514836
9.200000000000042 39810.377104940184 449.1646962091573
9.300000000000043 39698.073070668725 456.84235080767417
9.400000000000045 39556.71634532479 442.3381399882603
9.500000000000046 39441.90625712593 451.65605539740613
9.600000000000048 39318.52056778045 456.7439984988162
9.700000000000049 39172.485680718455 453.61231794511326
9.80000000000005 39063.00195648788 466.0975398105595
9.900000000000052 38944.38862102316 472.16705649687043
10.000000000000053 38794.58886416374 476.8039670306807
