# Rounds: 1000, repetitions: 1000
# Good arm ~ N(5.0,0.0), 1 bad arm(s) ~ N(4.5,0.0)
# Observation noise range from 0.5 to 4.0 with step size 0.1

# Observation noise | mean | standard deviation

0.5 4998.8925 2.9483701661488877
0.6 4997.492000000003 2.854923219035235
0.7 4995.886499999998 2.6687056300273357
0.7999999999999999 4994.131500000003 2.210847257409606
0.8999999999999999 4991.867 2.7934054689776557
0.9999999999999999 4989.866500000004 2.656215961331685
1.0999999999999999 4987.533000000005 2.446404687678613
1.1999999999999997 4985.161999999999 2.949738455686693
1.2999999999999996 4982.851500000006 2.0525376149197823
1.3999999999999995 4980.376499999993 2.201782367900062
1.4999999999999993 4977.740999999999 2.412205989905848
1.5999999999999992 4975.060499999994 2.390775095142927
1.699999999999999 4972.178000000006 2.6358611047936193
1.799999999999999 4969.377499999993 2.830062367334496
1.8999999999999988 4966.435 2.8255545931301125
1.9999999999999987 4963.658999999998 3.0021212053699258
2.0999999999999988 4960.4619999999995 3.1317509262174634
2.199999999999999 4957.285000000003 3.4738800846953293
2.299999999999999 4954.4519999999975 3.4174368867434572
2.399999999999999 4951.151000000001 3.8368503255170765
2.499999999999999 4947.987499999997 4.230187730850518
2.599999999999999 4944.873000000005 4.0075468096369145
2.6999999999999993 4941.761500000009 4.180651336286666
2.7999999999999994 4938.240499999999 4.460976357263044
2.8999999999999995 4935.263000000008 4.659672042487922
2.9999999999999996 4931.798499999993 5.018748408277287
3.0999999999999996 4928.544500000002 5.287317417696399
3.1999999999999997 4925.563999999999 5.441416452819347
3.3 4921.989499999999 5.432416672246398
3.4 4918.675000000004 5.854669260697174
3.5 4915.602499999999 6.069479576729163
3.6 4912.047999999992 6.401654253173692
3.7 4909.156499999999 6.518799928092796
3.8000000000000003 4905.855000000001 6.8186486175025
3.9000000000000004 4902.377000000001 6.936640972977352
4.0 4899.305500000003 7.461742246107639
