# Rounds: 1000, repetitions: 1000
# Good arm ~ N(5.0,0.0), 1 bad arm(s) ~ N(2.2,0.0)
# Observation noise range from 0.5 to 4.0 with step size 0.1

# Observation noise | mean | standard deviation

0.5 4999.722000000001 4.239080773682579
0.6 4999.483999999999 4.581896744556496
0.7 4999.416799999994 4.8082717516002065
0.7999999999999999 4999.176 4.47663537316403
0.8999999999999999 4998.5319999999965 4.613304518301153
0.9999999999999999 4997.554799999987 4.901026118785305
1.0999999999999999 4997.372799999997 4.022546586559296
1.1999999999999997 4996.796000000004 4.437458172764462
1.2999999999999996 4996.210799999998 4.061238360034557
1.3999999999999995 4995.4856 3.913544233615891
1.4999999999999993 4994.721199999999 3.6812147318381987
1.5999999999999992 4994.136000000002 3.1935971979984874
1.699999999999999 4992.9012000000075 3.6931338721739175
1.799999999999999 4991.935200000001 3.9304006168594596
1.8999999999999988 4991.100799999994 3.852006920725542
1.9999999999999987 4990.1964 3.4133792930464932
2.0999999999999988 4989.045599999997 3.369604557641031
2.199999999999999 4987.735200000005 3.64014444927833
2.299999999999999 4986.867199999998 3.6968135726042157
2.399999999999999 4985.635199999993 3.3557744534134017
2.499999999999999 4984.282800000003 3.937736650657221
2.599999999999999 4983.2076 3.476346822057132
2.6999999999999993 4981.944799999999 3.623722440298679
2.7999999999999994 4980.452400000001 4.170900460410283
2.8999999999999995 4979.052400000006 3.8489568338329185
2.9999999999999996 4977.795199999993 3.9650900240598976
3.0999999999999996 4976.2047999999995 4.0181740483313
3.1999999999999997 4975.037199999998 4.281287841944987
3.3 4973.625999999999 4.2512818534411485
3.4 4972.220399999994 4.448101780473314
3.5 4970.128799999993 4.946582581867946
3.6 4968.633600000004 4.714231115994956
3.7 4967.015200000001 4.727354105293652
3.8000000000000003 4965.606799999996 4.664344527355382
3.9000000000000004 4963.375200000009 5.037884997223085
4.0 4961.784799999997 5.335653489326187
