# Rounds: 1000, repetitions: 1000
# Good arm ~ N(5.0,0.0), 1 bad arm(s) ~ N(2.5,0.0)
# Observation noise range from 0.5 to 4.0 with step size 0.1

# Observation noise | mean | standard deviation

0.5 4999.519999999996 4.95925339080328
0.6 4999.317499999993 4.985257921767571
0.7 4999.4574999999995 4.651190957951246
0.7999999999999999 4998.512499999995 5.36865124273928
0.8999999999999999 4998.290000000001 4.399745192367114
0.9999999999999999 4997.792500000003 4.1412973926167185
1.0999999999999999 4997.027500000001 4.6775927167319535
1.1999999999999997 4996.497500000007 3.972344807953294
1.2999999999999996 4995.442499999998 4.5075782868423
1.3999999999999995 4995.150000000002 3.44628450318264
1.4999999999999993 4994.2425 3.541890559960746
1.5999999999999992 4993.172499999993 3.936303880322041
1.699999999999999 4992.412500000007 3.432983997796825
1.799999999999999 4991.482499999993 3.4706612106685193
1.8999999999999988 4990.2350000000015 3.756179426476309
1.9999999999999987 4989.1400000000085 3.7248186901209865
2.0999999999999988 4988.089999999997 3.440746828631629
2.199999999999999 4987.139999999995 3.1965791274608186
2.299999999999999 4985.6124999999965 3.599520843154034
2.399999999999999 4984.499999999986 3.372517438631548
2.499999999999999 4983.0324999999975 3.72479097639286
2.599999999999999 4981.789999999996 3.7396369990795764
2.6999999999999993 4980.410000000005 3.995041972290205
2.7999999999999994 4978.772499999998 3.716625762308723
2.8999999999999995 4977.497500000003 3.872497900579187
2.9999999999999996 4976.055000000002 3.903807719997818
3.0999999999999996 4974.2775 4.174526370789917
3.1999999999999997 4972.9024999999965 4.118398348260494
3.3 4971.472500000007 4.436516248863106
3.4 4970.099999999995 4.359932225276983
3.5 4967.9875 4.525104454078403
3.6 4966.604999999987 4.748317757008438
3.7 4964.637499999996 4.852668558859351
3.8000000000000003 4963.042500000001 4.8163929855641285
3.9000000000000004 4961.19 5.292628072320207
4.0 4959.600000000006 5.411264342257032
