# Rounds: 1000, repetitions: 1000
# Good arm ~ N(5.0,0.0), 1 bad arm(s) ~ N(4.8,0.0)
# Observation noise range from 0.5 to 4.0 with step size 0.1

# Observation noise | mean | standard deviation

0.5 4996.205399999988 1.0155206162959804
0.6 4993.463799999997 0.963336689624981
0.7 4990.553599999993 1.1231333262211003
0.7999999999999999 4987.6076000000085 1.2267057703650976
0.8999999999999999 4984.442199999999 1.202341376142672
0.9999999999999999 4981.262400000007 1.4215086798633747
1.0999999999999999 4978.018800000007 1.4971867378947266
1.1999999999999997 4974.6368 1.6914806729214262
1.2999999999999996 4971.428800000011 1.8112899633495407
1.3999999999999995 4968.185000000009 2.023162916867417
1.4999999999999993 4965.054600000012 2.182453193528159
1.5999999999999992 4962.02940000002 2.212580202196092
1.699999999999999 4958.901200000003 2.366888404787921
1.799999999999999 4955.907400000008 2.4805358893385896
1.8999999999999988 4953.1692000000185 2.6591356419635614
1.9999999999999987 4950.249600000014 2.9130234371771424
2.0999999999999988 4947.55920000001 2.80765708345879
2.199999999999999 4944.897400000021 3.0467418459517486
2.299999999999999 4942.39260000002 3.1947506431126818
2.399999999999999 4939.992200000024 3.1582960586353024
2.499999999999999 4937.730800000014 3.2545419652234506
2.599999999999999 4935.417800000026 3.43143963052445
2.6999999999999993 4933.3926000000265 3.489034049503327
2.7999999999999994 4931.424600000028 3.5904214189925945
2.8999999999999995 4929.4090000000315 3.660491524125241
2.9999999999999996 4927.558200000027 3.6767337585315123
3.0999999999999996 4925.795000000035 3.8713049482049073
3.1999999999999997 4923.682600000035 4.152944038170722
3.3 4922.051600000024 4.094183652423664
3.4 4920.1666000000305 4.150796737199555
3.5 4918.929200000035 4.303401750547966
3.6 4917.0854000000345 4.168429277633868
3.7 4915.929600000029 4.165524629074742
3.8000000000000003 4914.397400000042 4.2940694303032
3.9000000000000004 4913.145000000036 4.436428394202895
4.0 4911.793400000029 4.433297933881964
