# Rounds: 1000, repetitions: 1000
# Good arm ~ N(5.0,0.0), 1 bad arm(s) ~ N(4.2,0.0)
# Observation noise range from 0.5 to 4.0 with step size 0.1

# Observation noise | mean | standard deviation

0.5 4999.000800000012 4.568035278575046
0.6 4998.147200000001 4.275789346370331
0.7 4997.013600000001 4.270772123929604
0.7999999999999999 4996.050400000005 3.953202201715394
0.8999999999999999 4994.778400000003 2.985318335716537
0.9999999999999999 4993.35759999999 3.2021205186275186
1.0999999999999999 4991.695200000004 2.8901920645815244
1.1999999999999997 4989.769599999995 3.5544042580479434
1.2999999999999996 4988.25599999999 2.672318335319552
1.3999999999999995 4986.202399999994 2.919430992045731
1.4999999999999993 4984.128799999996 3.289156291377591
1.5999999999999992 4982.123199999994 2.9652410381643803
1.699999999999999 4980.063200000011 2.780715400420946
1.799999999999999 4977.796799999995 2.8649393776548933
1.8999999999999988 4975.393599999994 2.8971766726715877
1.9999999999999987 4973.099199999998 3.19585557446716
2.0999999999999988 4970.796800000004 3.1176063300598367
2.199999999999999 4968.343999999997 3.5211791636755128
2.299999999999999 4965.5496 3.6772301888597743
2.399999999999999 4963.1951999999965 3.6456862163367667
2.499999999999999 4960.417599999998 4.312963237948055
2.599999999999999 4957.683999999992 4.075757082530217
2.6999999999999993 4955.156000000003 4.3206772909177324
2.7999999999999994 4952.581600000006 4.4863469269271175
2.8999999999999995 4949.729599999999 4.872739211924512
2.9999999999999996 4946.8872000000065 4.573790082165465
3.0999999999999996 4943.887199999997 4.9100575174660275
3.1999999999999997 4941.261599999994 5.05115824733684
3.3 4938.198399999997 5.211214272527387
3.4 4935.157599999999 5.224792885914269
3.5 4932.067199999986 6.009319102533575
3.6 4929.105599999997 6.064191872216921
3.7 4926.039199999989 6.238379656668808
3.8000000000000003 4922.776800000006 6.407711020365942
3.9000000000000004 4919.662400000001 6.601454797652065
4.0 4916.4768 6.936487339901583
