# Rounds: 1000, repetitions: 1000
# Good arm ~ N(5.0,0.0), 1 bad arm(s) ~ N(4.7,0.0)
# Observation noise range from 0.5 to 4.0 with step size 0.1

# Observation noise | mean | standard deviation

0.5 4997.7253000000055 1.7021184204152564
0.6 4995.544299999999 1.705889084192584
0.7 4993.2727000000095 1.571729952964203
0.7999999999999999 4990.695999999999 1.5554495888402267
0.8999999999999999 4987.974700000004 1.5355545701269284
0.9999999999999999 4985.248299999996 1.578489385057313
1.0999999999999999 4982.282500000003 1.6656404498295148
1.1999999999999997 4979.325099999992 1.7962200300621651
1.2999999999999996 4976.2104999999965 1.8851189414526166
1.3999999999999995 4973.071000000001 2.272774626861194
1.4999999999999993 4969.791999999991 2.302219845326733
1.5999999999999992 4966.672599999992 2.221829373684122
1.699999999999999 4963.361199999995 2.511852695514579
1.799999999999999 4960.141599999997 2.6421942832862624
1.8999999999999988 4956.856299999994 2.809660923404209
1.9999999999999987 4953.534699999993 2.9115705646872483
2.0999999999999988 4950.456099999993 3.190046894512617
2.199999999999999 4947.314499999992 3.296186371338074
2.299999999999999 4943.947299999994 3.437235414878963
2.399999999999999 4940.940099999991 3.5610873807494805
2.499999999999999 4937.831199999992 3.771552885904189
2.599999999999999 4934.633499999995 3.997307370745565
2.6999999999999993 4931.606499999987 4.0136812762585246
2.7999999999999994 4928.682999999979 4.315234901167378
2.8999999999999995 4925.905599999986 4.669665342871602
2.9999999999999996 4922.990199999977 4.811810207965356
3.0999999999999996 4920.168699999977 4.863659681299376
3.1999999999999997 4917.254199999983 5.069337288102157
3.3 4914.557499999983 5.1743248243022375
3.4 4912.168899999979 5.382286856142542
3.5 4909.531299999988 5.397234518756305
3.6 4907.05569999998 5.470112397350151
3.7 4904.319699999971 5.8063323540261385
3.8000000000000003 4901.928099999971 5.722459867656748
3.9000000000000004 4899.6675999999725 6.075281004141782
4.0 4897.300899999974 6.3385492343596885
