# Rounds: 1000, repetitions: 1000
# Good arm ~ N(5.0,0.0), 1 bad arm(s) ~ N(2.6,0.0)
# Observation noise range from 0.5 to 4.0 with step size 0.1

# Observation noise | mean | standard deviation

0.5 4999.571200000002 5.010033032924238
0.6 4999.463200000003 5.283051807090102
0.7 4999.340800000004 4.726058716413966
0.7999999999999999 4998.433599999999 4.946884140820691
0.8999999999999999 4998.068800000006 4.5884027722073055
0.9999999999999999 4997.620000000003 4.462213727663761
1.0999999999999999 4997.140000000001 4.088657128828085
1.1999999999999997 4996.398399999989 4.095398604498657
1.2999999999999996 4995.541600000008 4.270844126112445
1.3999999999999995 4994.908000000003 3.944826695516231
1.4999999999999993 4993.599999999997 3.994590937349715
1.5999999999999992 4992.899200000004 4.237446792033438
1.699999999999999 4992.126400000008 3.080193278128868
1.799999999999999 4991.144800000004 3.4642855301250646
1.8999999999999988 4989.947199999994 3.4043033709470882
1.9999999999999987 4988.754399999999 3.88047661231701
2.0999999999999988 4987.770400000005 3.2685971864958137
2.199999999999999 4986.421600000007 3.6667831594927205
2.299999999999999 4985.228799999988 3.7302607690891305
2.399999999999999 4983.932800000001 3.670552699133539
2.499999999999999 4982.6007999999965 3.6082875577063063
2.599999999999999 4981.048000000007 4.083171351815571
2.6999999999999993 4979.612799999997 4.1907085556260855
2.7999999999999994 4978.578400000006 3.56230029944461
2.8999999999999995 4977.083200000006 4.159401204305584
2.9999999999999996 4975.367199999998 4.0583783207822375
3.0999999999999996 4973.987200000012 4.012173188397293
3.1999999999999997 4972.110400000009 4.511692277539231
3.3 4970.752000000006 4.404813092331831
3.4 4968.8967999999995 4.792276669358206
3.5 4967.512000000004 4.546837332666425
3.6 4965.491199999996 4.778664897039592
3.7 4963.5688 4.852464628719411
3.8000000000000003 4962.059199999999 4.9387373372641346
3.9000000000000004 4960.415200000009 4.9198672801259535
4.0 4958.456800000004 5.153668019387117
