# Rounds: 1000, repetitions: 1000
# Good arm ~ N(5.0,0.0), 1 bad arm(s) ~ N(4.0,0.0)
# Observation noise range from 0.5 to 4.0 with step size 0.1

# Observation noise | mean | standard deviation

0.5 4998.685000000003 5.824921004160025
0.6 4998.321999999996 4.911052273641013
0.7 4997.757999999998 4.46333477988796
0.7999999999999999 4996.620999999995 4.70185776757086
0.8999999999999999 4995.587000000001 4.088416092589627
0.9999999999999999 4994.547000000003 3.813966090218652
1.0999999999999999 4993.25 3.4602707225697635
1.1999999999999997 4991.629999999991 3.5667662976177663
1.2999999999999996 4990.169999999998 3.484141104955306
1.3999999999999995 4988.647000000006 3.1381904402440726
1.4999999999999993 4986.869999999999 3.0787300269069817
1.5999999999999992 4985.076000000009 3.288318268817246
1.699999999999999 4983.206999999989 3.355206164814404
1.799999999999999 4981.255999999996 2.9616271262999048
1.8999999999999988 4979.25 3.5085338547333143
1.9999999999999987 4977.173000000003 3.39360981663888
2.0999999999999988 4974.982999999998 3.37996081857983
2.199999999999999 4973.136999999995 3.2861877654860074
2.299999999999999 4970.919000000001 3.4038250579348475
2.399999999999999 4968.523999999998 3.6401476171543785
2.499999999999999 4966.6209999999965 3.5749320467861976
2.599999999999999 4963.852999999996 4.157484296503817
2.6999999999999993 4961.422000000002 4.146698820882793
2.7999999999999994 4959.104999999997 4.09154197286499
2.8999999999999995 4956.404999999992 4.542202836356675
2.9999999999999996 4954.090999999996 4.522075648213772
3.0999999999999996 4951.5369999999975 4.604979569643825
3.1999999999999997 4948.887999999995 4.846746016344056
3.3 4946.294 4.929083064816443
3.4 4943.651999999997 5.456984027342836
3.5 4940.824000000005 5.18342472617209
3.6 4938.136999999998 5.544454163573915
3.7 4935.2390000000005 5.7641221451409415
3.8000000000000003 4932.396 5.859310156965213
3.9000000000000004 4929.155000000005 6.7290605031650115
4.0 4926.422999999988 6.729885761464443
