# Rounds: 5000, repetitions: 1000
# Good arm ~ N(5.0,0.0), 4 bad arm(s) ~ N(2.6,0.0)
# Observation noise range from 0.5 to 4.0 with step size 0.1

# Observation noise | mean | standard deviation

0.5 24992.160000000007 5.540221480596159
0.6 24991.341600000025 5.530857060151226
0.7 24988.45679999998 5.4032628113953685
0.7999999999999999 24984.6432 4.448172658519511
0.8999999999999999 24982.946399999983 4.324348162096699
0.9999999999999999 24979.93440000001 3.9242293786447155
1.0999999999999999 24976.336799999983 3.405772312566424
1.1999999999999997 24972.403199999982 3.564207251736868
1.2999999999999996 24968.29200000002 3.6273038655918555
1.3999999999999995 24963.959999999955 3.382200360605373
1.4999999999999993 24959.325600000033 3.328967807995143
1.5999999999999992 24954.86639999998 3.4769181756267113
1.699999999999999 24949.646400000005 3.80111240237598
1.799999999999999 24944.577599999986 3.968179013689911
1.8999999999999988 24938.96400000001 3.8850324937482377
1.9999999999999987 24933.563999999973 4.163003074055766
2.0999999999999988 24927.532799999975 4.329303295800785
2.199999999999999 24921.878400000034 4.454887143291395
2.299999999999999 24915.532800000004 4.736344277723343
2.399999999999999 24909.304799999987 4.74252131977004
2.499999999999999 24903.086399999982 4.938952144766551
2.599999999999999 24896.231999999996 5.369033667479655
2.6999999999999993 24889.653599999983 5.445635131184284
2.7999999999999994 24882.818399999975 5.703910591519148
2.8999999999999995 24875.846399999995 5.701223639798707
2.9999999999999996 24868.828800000007 5.880420895643189
3.0999999999999996 24861.357599999992 6.061688403927951
3.1999999999999997 24853.89840000001 6.519302013156448
3.3 24846.144000000015 6.638745132699761
3.4 24838.749599999992 6.824464312542335
3.5 24831.280800000026 7.031178338574339
3.6 24823.296000000013 7.1545713981972225
3.7 24815.54639999999 7.241632984921355
3.8000000000000003 24806.925600000035 7.4804399350326936
3.9000000000000004 24798.3768 7.4832573723556
4.0 24790.71839999998 8.008407834023366
