# Rounds: 5000, repetitions: 1000
# Good arm ~ N(5.0,0.0), 4 bad arm(s) ~ N(4.8,0.0)
# Observation noise range from 0.5 to 4.0 with step size 0.1

# Observation noise | mean | standard deviation

0.5 24963.35479999995 0.9523780677796311
0.6 24949.629599999957 1.225751323194062
0.7 24934.77779999997 1.4216779974155824
0.7999999999999999 24918.99879999993 1.6020752807581442
0.8999999999999999 24902.6417999999 1.7774622730584613
0.9999999999999999 24885.725799999906 1.992893872237092
1.0999999999999999 24868.047399999858 2.162736847304412
1.1999999999999997 24850.257999999863 2.317258225944057
1.2999999999999996 24832.46899999985 2.614137087595286
1.3999999999999995 24814.327599999786 2.6278020442209997
1.4999999999999993 24796.17539999974 2.9812216493501333
1.5999999999999992 24778.02839999973 3.0750104274887162
1.699999999999999 24760.13339999972 3.4737517745856703
1.799999999999999 24742.321599999654 3.4902543339080707
1.8999999999999988 24725.10699999965 3.7274233304975324
1.9999999999999987 24708.055799999587 4.084547697109015
2.0999999999999988 24691.280199999594 4.08773746192467
2.199999999999999 24674.987999999557 4.2844243828505295
2.299999999999999 24659.188199999495 4.401480863739654
2.399999999999999 24643.755399999452 4.647869784494645
2.499999999999999 24628.709799999437 4.456061090304033
2.599999999999999 24614.098199999386 4.817975679654869
2.6999999999999993 24600.52519999937 4.8453154739546545
2.7999999999999994 24587.21039999933 5.029272852563909
2.8999999999999995 24574.087599999275 5.005775067272527
2.9999999999999996 24562.003999999262 5.37126004160675
3.0999999999999996 24549.72499999923 5.392941573848339
3.1999999999999997 24538.227599999213 5.493207949249958
3.3 24527.763999999122 5.6607656962992925
3.4 24516.817999999108 5.495332080484494
3.5 24506.70619999908 5.457074419627758
3.6 24497.30659999908 5.787573969514044
3.7 24487.798199999077 5.602233642210098
3.8000000000000003 24479.185999999 5.764553241510966
3.9000000000000004 24470.77859999904 6.012311529693398
4.0 24462.42259999899 6.079928846206917
