# Rounds: 5000, repetitions: 1000
# Good arm ~ N(5.0,0.0), 4 bad arm(s) ~ N(0.7,0.0)
# Observation noise range from 0.5 to 4.0 with step size 0.1

# Observation noise | mean | standard deviation

0.5 24986.733599999996 2.742924474839398
0.6 24986.647600000004 3.036526755148495
0.7 24986.44980000001 3.3584459380965273
0.7999999999999999 24986.43689999997 3.30037283512767
0.8999999999999999 24986.299299999995 3.708841465338256
0.9999999999999999 24985.50379999998 4.3552650773392285
1.0999999999999999 24984.166499999996 4.631511486398849
1.1999999999999997 24980.649099999977 5.261007259772878
1.2999999999999996 24975.815900000012 4.696308390906727
1.3999999999999995 24971.821200000017 3.5249930689489193
1.4999999999999993 24969.477700000018 3.0689723526452175
1.5999999999999992 24967.504 3.7495417137376545
1.699999999999999 24964.60580000001 4.312387162933929
1.799999999999999 24960.451999999987 4.463469341056831
1.8999999999999988 24956.268100000023 4.429568089945073
1.9999999999999987 24952.320699999997 4.276258633185826
2.0999999999999988 24948.65710000003 4.4634506810293235
2.199999999999999 24944.361399999998 4.9532620408012065
2.299999999999999 24940.08719999999 5.221018597476063
2.399999999999999 24935.451799999984 5.11888070770291
2.499999999999999 24930.79060000004 5.3793000017198205
2.599999999999999 24926.142300000014 5.191324547796594
2.6999999999999993 24921.3435 5.845189816763047
2.7999999999999994 24916.1663 5.912475934976527
2.8999999999999995 24911.35460000002 5.899936278306847
2.9999999999999996 24906.353699999996 5.994549268370707
3.0999999999999996 24901.07330000003 6.329339432171392
3.1999999999999997 24895.633800000003 6.345701339133316
3.3 24889.588000000003 6.78377148462045
3.4 24883.976499999993 6.875337665744826
3.5 24878.283300000006 6.887527069938177
3.6 24872.40090000001 7.427202200190424
3.7 24866.492699999995 7.384777020441
3.8000000000000003 24860.580200000048 7.6508223769103925
3.9000000000000004 24854.586000000018 8.073386127490195
4.0 24847.882300000012 8.206267088604822
