# Rounds: 5000, repetitions: 1000
# Good arm ~ N(5.0,0.0), 4 bad arm(s) ~ N(1.6,0.0)
# Observation noise range from 0.5 to 4.0 with step size 0.1

# Observation noise | mean | standard deviation

0.5 24989.475600000023 3.772123215585366
0.6 24989.27500000001 4.205437040392551
0.7 24989.169599999976 4.4452622190598525
0.7999999999999999 24989.01659999998 4.087139482468653
0.8999999999999999 24986.708000000006 5.3630493469950355
0.9999999999999999 24982.995199999994 4.945020747195242
1.0999999999999999 24978.857400000008 4.065394528538375
1.1999999999999997 24976.64740000003 3.3331100886205833
1.2999999999999996 24974.549600000013 3.7295803530172194
1.3999999999999995 24971.255000000012 4.026923281006815
1.4999999999999993 24967.26339999999 3.94245144083808
1.5999999999999992 24963.27519999999 3.863613913484402
1.699999999999999 24959.627000000033 3.981552933688549
1.799999999999999 24955.560599999968 4.03115092967554
1.8999999999999988 24951.1474 4.173263635258885
1.9999999999999987 24946.696800000005 4.32443875324085
2.0999999999999988 24942.001399999994 4.233934841757114
2.199999999999999 24937.17339999998 4.55167333737565
2.299999999999999 24932.420199999986 4.763099734320465
2.399999999999999 24927.228400000004 4.837267058225631
2.499999999999999 24921.9754 4.973281448739104
2.599999999999999 24916.603399999978 5.177964827977047
2.6999999999999993 24911.278999999977 5.192220927325996
2.7999999999999994 24905.482000000018 5.825854149957902
2.8999999999999995 24900.16440000001 5.7532453860824795
2.9999999999999996 24894.18039999999 6.101446015780956
3.0999999999999996 24888.39359999999 6.289362059471655
3.1999999999999997 24882.16479999999 6.553566219257899
3.3 24875.670800000018 6.556161270943225
3.4 24869.520199999963 6.677731955093077
3.5 24863.318600000013 6.732240124736004
3.6 24856.61719999995 7.268693008929953
3.7 24849.711799999975 7.329123877846924
3.8000000000000003 24843.098799999974 7.332284839050483
3.9000000000000004 24835.982600000014 7.713299698069842
4.0 24829.070400000008 7.6568238056520315
