# Rounds: 5000, repetitions: 1000
# Good arm ~ N(5.0,0.0), 4 bad arm(s) ~ N(4.4,0.0)
# Observation noise range from 0.5 to 4.0 with step size 0.1

# Observation noise | mean | standard deviation

0.5 24984.379800000035 2.0325558401290476
0.6 24977.66820000001 1.6809682966709978
0.7 24970.06140000003 1.6777976770287353
0.7999999999999999 24961.8378 1.7376624041016933
0.8999999999999999 24952.807200000014 1.7726506848353611
0.9999999999999999 24943.319399999997 1.9519820372815784
1.0999999999999999 24933.03900000002 2.123296349401993
1.1999999999999997 24922.435800000032 2.346747874310482
1.2999999999999996 24911.31780000002 2.579351898483484
1.3999999999999995 24899.6262 2.7350821256827795
1.4999999999999993 24887.765999999992 2.9177246472391962
1.5999999999999992 24875.436600000034 3.0505222710411135
1.699999999999999 24862.821000000033 3.4820401496238103
1.799999999999999 24849.81720000002 3.680136895219326
1.8999999999999988 24836.492400000032 3.7423451721311105
1.9999999999999987 24823.233000000026 4.029618943376033
2.0999999999999988 24809.071799999998 4.128817250966749
2.199999999999999 24794.64540000004 4.422127774503809
2.299999999999999 24780.67380000002 4.500485299154709
2.399999999999999 24765.82440000005 4.739412059174688
2.499999999999999 24751.235400000023 4.941733255402059
2.599999999999999 24736.304400000015 5.272663617337831
2.6999999999999993 24721.06560000001 5.512698657323906
2.7999999999999994 24706.360800000046 5.703679103463862
2.8999999999999995 24690.583800000048 5.590412352434115
2.9999999999999996 24674.95320000005 6.285631147219121
3.0999999999999996 24659.442600000042 6.134820393559424
3.1999999999999997 24643.795800000033 6.512882618316698
3.3 24627.70320000006 6.717958076728223
3.4 24611.992200000048 7.1121474817223005
3.5 24595.56000000005 7.120127542129418
3.6 24580.117200000044 7.213374864576051
3.7 24563.87280000006 7.499454778977889
3.8000000000000003 24547.693800000055 7.579433314524739
3.9000000000000004 24531.77580000005 7.945243939692721
4.0 24514.961400000044 8.3342480002509
