# Rounds: 5000, repetitions: 1000
# Good arm ~ N(5.0,0.0), 4 bad arm(s) ~ N(3.3,0.0)
# Observation noise range from 0.5 to 4.0 with step size 0.1

# Observation noise | mean | standard deviation

0.5 24991.37449999998 5.2679095114304
0.6 24988.894200000024 4.601523702034142
0.7 24986.148699999976 4.350016201228578
0.7999999999999999 24982.257399999988 4.535603260530524
0.8999999999999999 24978.690799999982 3.544722897550822
0.9999999999999999 24974.31330000002 3.3087551996138203
1.0999999999999999 24969.599199999982 3.2033046249960497
1.1999999999999997 24964.735500000017 3.281264458474494
1.2999999999999996 24959.331200000004 3.1681072367370686
1.3999999999999995 24953.72629999998 3.0163515522381936
1.4999999999999993 24947.82049999998 3.178259127428842
1.5999999999999992 24941.607000000015 3.426232635136605
1.699999999999999 24935.089199999995 3.563931111142559
1.799999999999999 24928.42520000001 3.7703926613584686
1.8999999999999988 24921.587800000012 3.955947507322047
1.9999999999999987 24914.648400000016 4.407827853534413
2.0999999999999988 24907.557699999983 4.211533892506915
2.199999999999999 24899.809100000017 4.336292266513982
2.299999999999999 24892.36480000004 4.4315120736908025
2.399999999999999 24884.495499999957 4.825674759750873
2.499999999999999 24876.383100000003 5.044778903400527
2.599999999999999 24868.335299999988 5.096913029711736
2.6999999999999993 24859.828500000032 5.069269695454805
2.7999999999999994 24851.47979999997 5.6365594792192875
2.8999999999999995 24842.877800000006 5.713958039440847
2.9999999999999996 24833.614499999974 5.755507416000016
3.0999999999999996 24825.206299999976 6.35851563110829
3.1999999999999997 24816.07560000001 6.104271190468377
3.3 24806.45869999999 6.556217529819838
3.4 24796.860500000017 6.655907966677242
3.5 24787.704299999972 6.908670004512432
3.6 24777.968399999983 7.100047331682599
3.7 24768.33959999997 7.294856185476707
3.8000000000000003 24758.13280000002 7.446024942710748
3.9000000000000004 24748.4156 7.732676828301661
4.0 24738.100000000013 8.013154850037168
