# Rounds: 5000, repetitions: 1000
# Good arm ~ N(5.0,0.0), 4 bad arm(s) ~ N(1.7,0.0)
# Observation noise range from 0.5 to 4.0 with step size 0.1

# Observation noise | mean | standard deviation

0.5 24989.9256 3.8973136509256454
0.6 24989.8134 3.9199319262333527
0.7 24989.546100000036 4.355816562703883
0.7999999999999999 24989.163300000007 4.385854401234252
0.8999999999999999 24986.84670000005 5.076388364657116
0.9999999999999999 24982.157399999982 4.976538070905365
1.0999999999999999 24978.8277 3.12566993179442
1.1999999999999997 24976.738800000014 3.6045564758213473
1.2999999999999996 24974.33969999999 3.836625288401063
1.3999999999999995 24970.683300000015 4.181250287170172
1.4999999999999993 24966.61109999999 3.9486299482815452
1.5999999999999992 24962.674200000012 3.8129769410727445
1.699999999999999 24958.80329999999 4.34891390604139
1.799999999999999 24954.7146 3.9830505308781445
1.8999999999999988 24950.144100000016 4.0930768950098795
1.9999999999999987 24945.639600000013 4.327375419121215
2.0999999999999988 24941.184600000008 4.284210230286784
2.199999999999999 24935.95079999999 4.639053802250615
2.299999999999999 24930.974400000014 4.779276736716498
2.399999999999999 24926.34779999998 4.782774308922033
2.499999999999999 24920.394600000003 4.971102765252231
2.599999999999999 24915.012300000028 5.342801159899907
2.6999999999999993 24909.913799999973 5.530048009826219
2.7999999999999994 24904.023299999997 5.697811172911482
2.8999999999999995 24898.31100000002 5.727294378752841
2.9999999999999996 24892.2126 6.18592004853257
3.0999999999999996 24886.361699999987 6.545767348460346
3.1999999999999997 24880.51410000004 6.243762949196451
3.3 24873.99990000001 6.554581033331647
3.4 24867.056700000005 6.639027925968644
3.5 24860.737200000025 7.065336165754822
3.6 24854.08439999998 7.0164369181953985
3.7 24847.408499999965 7.660240011058006
3.8000000000000003 24840.09570000001 7.369533332004026
3.9000000000000004 24833.3934 7.764144407361635
4.0 24826.572300000018 8.053754756364265
