# Rounds: 5000, repetitions: 1000
# Good arm ~ N(5.0,1.0), 4 bad arm(s) ~ N(4.5,1.0)
# Observation noise range from 0.5 to 4.0 with step size 0.1

# Observation noise | mean | standard deviation

0.5 24893.49627018395 392.7124710666571
0.6 24906.90174097265 321.4003911459527
0.7 24936.812253936158 206.89197955350653
0.7999999999999999 24938.84820303825 136.2708512360786
0.8999999999999999 24931.325798743077 147.4037060392001
0.9999999999999999 24926.5076890737 96.50166239592603
1.0999999999999999 24917.47616468936 79.96024036258929
1.1999999999999997 24905.15799819925 79.73039297996219
1.2999999999999996 24893.664956114837 79.63771642399658
1.3999999999999995 24881.452036907933 77.56831952354973
1.4999999999999993 24876.11848923882 80.24351091649007
1.5999999999999992 24861.420518861716 74.82974101045417
1.699999999999999 24840.766781519364 79.96162170450653
1.799999999999999 24828.5161730215 80.28516770961171
1.8999999999999988 24813.999288663024 77.18552732879435
1.9999999999999987 24800.23396376549 86.00551198664739
2.0999999999999988 24784.285213726558 79.7483728809278
2.199999999999999 24767.22134705148 83.26685799620918
2.299999999999999 24750.52373783765 84.69000158681389
2.399999999999999 24738.633801816417 82.64495634081246
2.499999999999999 24717.8999641191 84.06815347024154
2.599999999999999 24702.099001925508 86.684446381055
2.6999999999999993 24689.19124312066 86.5562866679062
2.7999999999999994 24672.808205625275 85.65014547367699
2.8999999999999995 24655.056325205533 87.00124711216489
2.9999999999999996 24639.624807252563 87.84037563783143
3.0999999999999996 24622.76227662951 87.85147380621966
3.1999999999999997 24601.37332920021 89.59237612227969
3.3 24587.76375598338 90.48077665690317
3.4 24573.961821518566 86.95716593365051
3.5 24552.872327039873 90.87381112323865
3.6 24542.046977894457 88.52216595555197
3.7 24525.79166367687 92.88786013112414
3.8000000000000003 24506.323186811387 90.44626276362038
3.9000000000000004 24493.256209976455 93.89374444855304
4.0 24473.081609159675 93.15972887992501
