# Rounds: 5000, repetitions: 1000
# Good arm ~ N(5.0,0.0), 4 bad arm(s) ~ N(4.9,0.0)
# Observation noise range from 0.5 to 4.0 with step size 0.1

# Observation noise | mean | standard deviation

0.5 24943.97230000002 0.9672115633116054
0.6 24925.945700000004 1.1489654614587723
0.7 24907.498500000038 1.4331509591320122
0.7999999999999999 24888.845300000106 1.5114835402617024
0.8999999999999999 24870.461600000104 1.699986880944393
0.9999999999999999 24852.808000000154 1.8857815812427159
1.0999999999999999 24835.92180000017 2.022823911405668
1.1999999999999997 24819.862300000204 2.135708304036913
1.2999999999999996 24804.68990000028 2.3812051839551476
1.3999999999999995 24790.89060000035 2.4442598155709345
1.4999999999999993 24778.02620000037 2.4383886686217817
1.5999999999999992 24766.377800000442 2.647246697049139
1.699999999999999 24755.561500000476 2.599204419347385
1.799999999999999 24745.53520000048 2.7778368089716525
1.8999999999999988 24736.41850000054 2.8143006303476437
1.9999999999999987 24728.329200000597 2.7461078763228053
2.0999999999999988 24720.88110000069 2.940207068819783
2.199999999999999 24714.02200000071 2.8138752448957653
2.299999999999999 24707.878200000698 2.8549983845363496
2.399999999999999 24702.24790000071 2.8817251655669933
2.499999999999999 24696.780400000767 2.807749864077366
2.599999999999999 24692.142300000774 2.7249157557267467
2.6999999999999993 24687.6500000008 2.6774257428631723
2.7999999999999994 24683.493600000827 2.7763153579707835
2.8999999999999995 24679.68660000087 2.824620137090037
2.9999999999999996 24676.519300000866 2.80911171343374
3.0999999999999996 24673.22960000086 2.7511984539247623
3.1999999999999997 24670.135400000898 2.743689974216757
3.3 24667.150300000932 2.764529350986101
3.4 24664.685400000948 2.7641684947565146
3.5 24662.19640000095 2.7919710138316622
3.6 24659.88720000093 2.762703148843374
3.7 24657.69520000097 2.6667674455329773
3.8000000000000003 24655.565600000984 2.854695417353952
3.9000000000000004 24653.845200000975 2.78510929655096
4.0 24651.882700001006 2.82136328762081
