# Rounds: 5000, repetitions: 1000
# Good arm ~ N(5.0,0.0), 4 bad arm(s) ~ N(0.0,0.0)
# Observation noise range from 0.5 to 4.0 with step size 0.1

# Observation noise | mean | standard deviation

0.5 24984.454999999994 1.944673946129997
0.6 24984.259999999973 2.3038462856075257
0.7 24983.975000000006 3.1119220843490285
0.7999999999999999 24984.08000000001 2.521896104116882
0.8999999999999999 24984.09999999999 2.756373994507585
0.9999999999999999 24983.70500000002 3.0915259229921497
1.0999999999999999 24983.265 3.7388171597115547
1.1999999999999997 24982.694999999978 4.120552627252044
1.2999999999999996 24980.06 5.174279966640096
1.3999999999999995 24975.669999999995 5.579626531608705
1.4999999999999993 24970.760000000006 4.908818238282608
1.5999999999999992 24966.735000000033 3.7521798802634847
1.699999999999999 24964.21999999998 2.9240639784638764
1.799999999999999 24962.294999999995 3.7645912324112047
1.8999999999999988 24959.964999999982 4.630898424735759
1.9999999999999987 24956.155000000028 5.293297081592366
2.0999999999999988 24951.66 5.497692663711321
2.199999999999999 24947.324999999968 5.234192561586857
2.299999999999999 24943.50500000003 4.925874464421503
2.399999999999999 24939.42999999999 5.215582642649026
2.499999999999999 24935.040000000015 5.452350697463204
2.599999999999999 24931.55 5.863606559267202
2.6999999999999993 24926.32499999998 5.929125528231742
2.7999999999999994 24921.879999999986 6.148447235148344
2.8999999999999995 24917.19500000001 6.05752991479768
2.9999999999999996 24912.204999999958 6.245156281229255
3.0999999999999996 24906.990000000005 6.609355761614249
3.1999999999999997 24901.94000000001 6.5520477203183685
3.3 24896.884999999984 7.03713693886196
3.4 24891.364999999983 6.9900383143181894
3.5 24886.109999999975 7.11115099463289
3.6 24880.515000000003 7.349407376706539
3.7 24874.929999999982 8.115476631779543
3.8000000000000003 24869.03000000002 7.872170670855052
3.9000000000000004 24863.470000000005 8.091636087626275
4.0 24857.43500000001 8.195299746680355
