# Rounds: 5000, repetitions: 1000
# Good arm ~ N(5.0,0.0), 4 bad arm(s) ~ N(0.1,0.0)
# Observation noise range from 0.5 to 4.0 with step size 0.1

# Observation noise | mean | standard deviation

0.5 24984.758099999995 2.4008953931170365
0.6 24984.64539999998 2.5487280857041714
0.7 24984.625799999973 2.426768131397368
0.7999999999999999 24984.29259999997 3.0886380372144844
0.8999999999999999 24984.366099999974 2.8182873404848165
0.9999999999999999 24983.920199999997 3.8062605769420856
1.0999999999999999 24983.719300000008 3.712133813247034
1.1999999999999997 24982.42569999998 4.364424098058568
1.2999999999999996 24979.6817 5.116222321288273
1.3999999999999995 24975.404000000006 5.308248440069996
1.4999999999999993 24969.832700000024 4.686064437233681
1.5999999999999992 24966.579099999988 3.50008625519306
1.699999999999999 24964.6828 3.0221378984881566
1.799999999999999 24962.6787 4.157646249061383
1.8999999999999988 24959.665200000014 4.754357251288128
1.9999999999999987 24955.544299999998 5.133199513680847
2.0999999999999988 24951.242099999974 5.099867276335857
2.199999999999999 24946.944799999976 4.815635295919144
2.299999999999999 24943.08359999999 5.301688310240056
2.399999999999999 24939.266500000005 5.313622336253733
2.499999999999999 24934.905500000023 5.428178780666942
2.599999999999999 24930.353400000015 5.673397207660054
2.6999999999999993 24925.874800000012 5.7425605753850615
2.7999999999999994 24920.768999999986 5.911267383741084
2.8999999999999995 24916.457000000035 6.066177503956493
2.9999999999999996 24911.54720000001 6.218226314513111
3.0999999999999996 24906.299299999984 6.523303073826999
3.1999999999999997 24901.090599999996 6.77100126259794
3.3 24895.6712 6.937715939880065
3.4 24890.58989999998 7.116494395591454
3.5 24885.234199999995 7.132412050748727
3.6 24879.853999999996 7.337973143168103
3.7 24873.684899999975 7.820292767472011
3.8000000000000003 24868.47619999999 7.768423389721039
3.9000000000000004 24862.311999999976 8.37673956654804
4.0 24856.265400000015 7.832706692717622
