# Rounds: 5000, repetitions: 1000
# Good arm ~ N(5.0,1.0), 4 bad arm(s) ~ N(4.6,1.0)
# Observation noise range from 0.5 to 4.0 with step size 0.1

# Observation noise | mean | standard deviation

0.5 24828.965741653683 459.68851767122436
0.6 24904.578680396393 295.1965538410298
0.7 24913.40501036341 236.07871986350304
0.7999999999999999 24917.91268577897 174.26164572038158
0.8999999999999999 24919.610843215567 141.06064213637478
0.9999999999999999 24911.28533122391 101.0185459455268
1.0999999999999999 24899.6448785593 86.25285569186212
1.1999999999999997 24890.276184826096 83.52193736310207
1.2999999999999996 24876.39824178671 77.76196269604974
1.3999999999999995 24865.166039617747 82.0756660882358
1.4999999999999993 24853.225852150634 79.60331462665386
1.5999999999999992 24833.75082549377 81.05344224991983
1.699999999999999 24824.3005084934 85.30526118227162
1.799999999999999 24806.006274527568 83.24347800312465
1.8999999999999988 24789.167805760502 82.85190882195657
1.9999999999999987 24776.078954558958 84.82336913696304
2.0999999999999988 24754.546279120812 83.6444269346571
2.199999999999999 24739.42789742753 87.42728548448184
2.299999999999999 24716.706517322644 85.62715301782784
2.399999999999999 24706.37764797004 86.40219505814304
2.499999999999999 24684.305120993155 89.5775878000362
2.599999999999999 24673.5636233767 89.22368226283703
2.6999999999999993 24654.587476248038 92.33592843909403
2.7999999999999994 24637.0681381782 88.79832908347336
2.8999999999999995 24618.630467127747 88.62316956414323
2.9999999999999996 24601.524679128655 94.12011083949376
3.0999999999999996 24582.399685912456 91.08930816015418
3.1999999999999997 24563.033018361788 96.86062755858269
3.3 24556.810557862686 92.3237694594711
3.4 24528.339337872676 91.51726162760843
3.5 24518.528242459783 97.01252816743344
3.6 24494.69852874331 95.87294583047156
3.7 24482.75584685039 97.49862834471362
3.8000000000000003 24465.13206719308 96.37903067819322
3.9000000000000004 24452.942728357444 97.87080854794952
4.0 24430.15622362601 101.17888997870618
