# Rounds: 5000, repetitions: 1000
# Good arm ~ N(5.0,0.0), 4 bad arm(s) ~ N(1.0,0.0)
# Observation noise range from 0.5 to 4.0 with step size 0.1

# Observation noise | mean | standard deviation

0.5 24987.69200000002 3.3051565863148102
0.6 24987.60000000001 3.5649275881438105
0.7 24987.388 3.5628850879800296
0.7999999999999999 24987.275999999983 3.9073125151555645
0.8999999999999999 24987.072000000007 4.064891061189661
0.9999999999999999 24986.000000000004 4.437532162327581
1.0999999999999999 24982.939999999988 4.95307307970845
1.1999999999999997 24978.29999999999 5.013495301198058
1.2999999999999996 24974.120000000006 3.5290301860503095
1.3999999999999995 24971.83199999999 3.147965324727373
1.4999999999999993 24969.923999999974 3.6758312985956616
1.5999999999999992 24967.068000000007 4.1352722372869986
1.699999999999999 24963.060000000038 4.423569595696158
1.799999999999999 24958.915999999997 4.335405372020008
1.8999999999999988 24954.888000000028 4.103205124325663
1.9999999999999987 24950.891999999996 4.679554918390696
2.0999999999999988 24946.891999999996 4.76771088333463
2.199999999999999 24942.635999999988 4.881324751676698
2.299999999999999 24938.004000000023 4.917740148499979
2.399999999999999 24933.156000000017 5.114863226502356
2.499999999999999 24928.672000000002 5.271831580030563
2.599999999999999 24923.788000000022 5.3740055764704655
2.6999999999999993 24918.803999999993 5.362680518392135
2.7999999999999994 24913.49999999999 5.908037314109035
2.8999999999999995 24908.04800000002 6.052630034152919
2.9999999999999996 24903.096000000005 6.283810171406377
3.0999999999999996 24897.019999999982 6.257695962473637
3.1999999999999997 24891.803999999993 6.529028427891275
3.3 24885.991999999995 6.323283950600329
3.4 24880.308000000008 6.681150632471501
3.5 24874.104000000032 6.98899349191502
3.6 24868.147999999983 6.894173309804812
3.7 24861.891999999953 7.387212390808005
3.8000000000000003 24855.076000000015 8.073376208464758
3.9000000000000004 24848.935999999972 7.973674402901341
4.0 24842.72400000002 7.697211902440417
