# Rounds: 5000, repetitions: 1000
# Good arm ~ N(5.0,1.0), 4 bad arm(s) ~ N(4.7,1.0)
# Observation noise range from 0.5 to 4.0 with step size 0.1

# Observation noise | mean | standard deviation

0.5 24835.859147315008 372.2175073761433
0.6 24878.283246201318 289.8541401282036
0.7 24888.466978771507 252.0886055127391
0.7999999999999999 24900.950447369116 184.3515691361209
0.8999999999999999 24897.80432942769 134.63427070171923
0.9999999999999999 24897.853256173436 106.40513060440045
1.0999999999999999 24886.877853461054 94.02711373054949
1.1999999999999997 24871.412157395207 100.48571098505447
1.2999999999999996 24846.0418499179 83.53681124889901
1.3999999999999995 24841.564170795587 82.88682719351922
1.4999999999999993 24821.615265367156 86.50943204652448
1.5999999999999992 24808.995321078386 85.97018720846911
1.699999999999999 24789.022670147817 85.22740001730237
1.799999999999999 24772.387922483347 88.76595973126564
1.8999999999999988 24755.467053423094 86.47561696276529
1.9999999999999987 24739.340958489316 90.15043383056968
2.0999999999999988 24716.93955402659 92.00664430870833
2.199999999999999 24701.473628791548 92.89049777068321
2.299999999999999 24683.02865834805 90.57772824326786
2.399999999999999 24662.993736297623 98.17983498932934
2.499999999999999 24644.673156876233 94.07092500312221
2.599999999999999 24625.861176433176 95.13080949390532
2.6999999999999993 24612.697309782998 94.50663137870386
2.7999999999999994 24595.420990223476 96.49065658883768
2.8999999999999995 24576.112418012177 93.79763634700628
2.9999999999999996 24568.005231683954 94.91434093808418
3.0999999999999996 24550.68930011539 102.71936796915003
3.1999999999999997 24525.274038663392 98.81678672406326
3.3 24514.879138881213 102.61374139307169
3.4 24497.87712818301 98.26835296794127
3.5 24484.343295369406 103.07777931785174
3.6 24468.721644064713 97.11769827806008
3.7 24454.001872421755 98.1019736006071
3.8000000000000003 24445.572907758135 97.72039173325906
3.9000000000000004 24429.595308850832 97.10612043855893
4.0 24413.30666185412 96.15124770591801
