# Rounds: 5000, repetitions: 1000
# Good arm ~ N(5.0,0.0), 4 bad arm(s) ~ N(0.8,0.0)
# Observation noise range from 0.5 to 4.0 with step size 0.1

# Observation noise | mean | standard deviation

0.5 24987.141600000017 2.8700569100051365
0.6 24987.036599999974 2.881646113652099
0.7 24986.88120000003 3.349588975726575
0.7999999999999999 24986.717400000023 3.367954922555086
0.8999999999999999 24986.406600000006 3.7032675613076678
0.9999999999999999 24986.058000000005 3.804932786990655
1.0999999999999999 24983.92020000001 4.8472639630962755
1.1999999999999997 24980.035200000013 5.256598975839566
1.2999999999999996 24975.062400000006 4.477981527268696
1.3999999999999995 24971.618399999992 3.0105821770952126
1.4999999999999993 24969.678000000036 3.2492327576699522
1.5999999999999992 24967.62420000001 3.9571192998390323
1.699999999999999 24964.344000000012 4.682280186805765
1.799999999999999 24960.1524 4.343265844753569
1.8999999999999988 24955.902000000006 4.60297984173582
1.9999999999999987 24952.08420000002 4.338960352081917
2.0999999999999988 24948.05640000001 4.781238257949501
2.199999999999999 24943.8396 4.88629795937073
2.299999999999999 24939.568200000005 5.214262871902569
2.399999999999999 24935.069999999967 4.981750479283687
2.499999999999999 24930.29879999998 5.153709273841854
2.599999999999999 24925.54019999999 5.502088415950918
2.6999999999999993 24920.61779999998 5.707312552907957
2.7999999999999994 24915.18720000003 5.691550747372465
2.8999999999999995 24910.218600000015 5.882208294035682
2.9999999999999996 24904.947599999992 6.345473920779053
3.0999999999999996 24899.516999999996 6.263492822886357
3.1999999999999997 24894.384600000016 6.630046784176309
3.3 24888.823799999995 6.806988221574702
3.4 24883.01939999998 6.931749619886732
3.5 24877.093199999978 6.889247817832079
3.6 24871.376999999986 7.218294450545966
3.7 24864.98880000002 7.639397551833824
3.8000000000000003 24858.98279999998 7.651107344928315
3.9000000000000004 24852.708 7.857368149338944
4.0 24846.924599999973 8.34011944953094
