# Rounds: 10000, repetitions: 1000
# Good arm ~ N(5.0,1.0), 10 bad arm(s) ~ N(1.0,1.0)
# Observation noise range from 0.5 to 8.0 with step size 0.1

# Observation noise | mean | standard deviation

0.5 49962.504564788025 102.7856380285651
0.6 49962.2107827544 99.85011798509622
0.7 49962.655460279275 101.61468623782959
0.7999999999999999 49961.23202162821 98.11636850573264
0.8999999999999999 49958.51040015166 100.1637775955453
0.9999999999999999 49953.00090065043 101.68261794263631
1.0999999999999999 49946.62369693747 96.62690124567351
1.1999999999999997 49932.32420768788 102.69392454482804
1.2999999999999996 49921.82279948253 98.47541081602083
1.3999999999999995 49920.783611665094 100.64530851278174
1.4999999999999993 49910.50340218009 100.22034027997599
1.5999999999999992 49899.057852079226 100.91408414518312
1.699999999999999 49890.78387980499 99.68643081545792
1.799999999999999 49881.52803079252 106.39419289209634
1.8999999999999988 49873.811846342025 105.15906101303645
1.9999999999999987 49857.792554887084 99.22401365222113
2.0999999999999988 49842.11486504289 104.13990146915634
2.199999999999999 49835.98425684017 103.94347606690681
2.299999999999999 49822.718389917194 101.40846697287789
2.399999999999999 49811.82003388812 101.17532615696783
2.499999999999999 49796.123163678894 102.31705226691237
2.599999999999999 49782.57690482124 103.04160105288013
2.6999999999999993 49769.92682892997 98.38721815123715
2.7999999999999994 49758.904032757135 100.70051316380409
2.8999999999999995 49739.60193419314 98.0263218321042
2.9999999999999996 49725.14280326357 100.80816249716358
3.0999999999999996 49708.259939745854 100.05693859749731
3.1999999999999997 49692.47036836796 103.40353341789658
3.3 49680.561491279936 104.76604444350616
3.4 49660.977055465824 101.0469616056313
3.5 49646.76501091024 102.54980513832533
3.6 49628.51989980893 105.39130576808319
3.7 49612.48603142172 98.64961809309574
3.8000000000000003 49591.90120831576 102.1528014650518
3.9000000000000004 49584.47246850205 102.08414315787705
4.0 49557.65134548901 102.80141622207621
4.1 49542.23393778016 104.11020312865558
4.199999999999999 49521.2579752261 102.43939195086539
4.299999999999999 49502.15345648173 101.01276747846501
4.399999999999999 49490.62197396496 103.44827848765973
4.499999999999998 49471.13689641397 108.55394466038915
4.599999999999998 49446.02311684865 104.39518218257419
4.6999999999999975 49423.60251035707 104.03931877757951
4.799999999999997 49402.64579046623 105.26837875050958
4.899999999999997 49388.5430106046 102.79833492947222
4.9999999999999964 49366.97747858694 101.27465629781003
5.099999999999996 49344.30814433266 102.91767184644739
5.199999999999996 49319.963339602364 105.86883898436786
5.299999999999995 49299.57092454941 108.79860266851145
5.399999999999995 49278.41047869496 104.11494713047489
5.499999999999995 49250.26319004915 106.20466542515132
5.599999999999994 49229.515899366925 103.92459083947062
5.699999999999994 49214.09808314191 100.90573910159407
5.799999999999994 49190.292359859675 105.17249494157068
5.899999999999993 49165.20437195053 104.34087477455378
5.999999999999993 49149.96505310805 104.62963330841721
6.0999999999999925 49127.48288442326 108.94426440853495
6.199999999999992 49101.57779016212 101.4149400581223
6.299999999999992 49078.43373278681 106.79512560290351
6.3999999999999915 49046.65575168859 108.67261840003552
6.499999999999991 49029.50007543185 106.57299825287677
6.599999999999991 48998.18251339408 105.08796950461794
6.69999999999999 48977.26905336379 113.96759577302997
6.79999999999999 48954.42703664313 109.95494636656491
6.89999999999999 48924.734412086145 107.2336850737852
6.999999999999989 48900.94066727468 110.33371563020862
7.099999999999989 48870.71198848833 105.1174293936021
7.199999999999989 48847.72348823215 111.29663286005821
7.299999999999988 48832.04911414702 108.5297683495446
7.399999999999988 48790.01648326771 107.67189063755892
7.499999999999988 48765.39956754455 105.19844253269925
7.599999999999987 48748.157053848605 109.4748577523598
7.699999999999987 48722.274469039054 108.4727540169171
7.7999999999999865 48691.685389593 107.08092127246631
7.899999999999986 48665.700967955985 112.45446248806286
7.999999999999986 48629.37838354724 107.29706497776873
