# Rounds: 10000, repetitions: 1000
# Good arm ~ N(5.0,1.0), 10 bad arm(s) ~ N(2.0,1.0)
# Observation noise range from 0.5 to 8.0 with step size 0.1

# Observation noise | mean | standard deviation

0.5 49964.15228134721 101.26592158444065
0.6 49958.87109234949 97.05458633925646
0.7 49954.7709894249 98.55216622775812
0.7999999999999999 49955.59670657655 100.034753892683
0.8999999999999999 49953.20676728304 96.67821784787466
0.9999999999999999 49945.65082466921 101.29264907512538
1.0999999999999999 49932.100823421504 99.32626490112385
1.1999999999999997 49929.66659686965 101.70104752871903
1.2999999999999996 49915.314851184776 103.6599747402682
1.3999999999999995 49906.85285370106 100.5560276053708
1.4999999999999993 49898.798630220794 96.32301448834833
1.5999999999999992 49888.78058119076 98.46638639952494
1.699999999999999 49874.11999725281 101.2743354861158
1.799999999999999 49861.93070648214 99.81416318635272
1.8999999999999988 49848.930188703605 100.81592834814806
1.9999999999999987 49834.386095092705 103.6679246094393
2.0999999999999988 49823.67116226081 102.66817276496414
2.199999999999999 49805.97174114602 102.62884533571524
2.299999999999999 49792.18586332681 103.52532611162961
2.399999999999999 49771.36053181822 99.81617526529125
2.499999999999999 49758.7710438846 101.02228815120584
2.599999999999999 49750.920514420985 102.10325216315509
2.6999999999999993 49723.06472073205 100.74529658131955
2.7999999999999994 49709.10873926255 103.83616177599097
2.8999999999999995 49694.52901537184 99.05631334698133
2.9999999999999996 49678.0409961515 96.09071032721909
3.0999999999999996 49659.55029601083 103.039036771435
3.1999999999999997 49643.94187348321 101.97429805145931
3.3 49625.18748467757 102.43121719218573
3.4 49601.66535353934 104.91452428499052
3.5 49582.019934327014 101.53990478494669
3.6 49570.20920784142 100.41823634187966
3.7 49543.8767499895 102.34245396352713
3.8000000000000003 49524.40757422688 103.18659396942992
3.9000000000000004 49508.39348599214 99.89855137237622
4.0 49484.40294169815 102.47046763823101
4.1 49459.3373223176 107.80356168824228
4.199999999999999 49445.388907667446 106.52202552808284
4.299999999999999 49420.337981571676 106.3855833909278
4.399999999999999 49395.22944077617 101.67165254605517
4.499999999999998 49368.627079414415 106.36008409770604
4.599999999999998 49354.60113583799 102.90432834037549
4.6999999999999975 49331.97591345349 107.76204086666823
4.799999999999997 49306.18606886764 101.80249019826721
4.899999999999997 49281.25438898882 105.59702111131222
4.9999999999999964 49261.45433266523 106.13708187680388
5.099999999999996 49236.013887241956 102.60935793467935
5.199999999999996 49205.972356513375 104.8989011475785
5.299999999999995 49187.61830142409 110.25354890185469
5.399999999999995 49161.46455349784 109.88428428979408
5.499999999999995 49132.83572783853 104.21264209229527
5.599999999999994 49116.31915246804 108.01672852876962
5.699999999999994 49085.40917766631 106.90057833299255
5.799999999999994 49061.6603208897 104.88275675709686
5.899999999999993 49035.08973719883 105.12735433862693
5.999999999999993 49007.71601285127 110.93789925197599
6.0999999999999925 48978.75200255117 105.93935700631641
6.199999999999992 48955.63035317874 107.58032845191664
6.299999999999992 48924.49001178446 107.35074950344745
6.3999999999999915 48904.36633638636 112.08172605132297
6.499999999999991 48877.83611658948 109.46257984975958
6.599999999999991 48850.044627296455 111.46797352964215
6.69999999999999 48823.524611914334 108.34167917682645
6.79999999999999 48791.94915020675 104.58688311699918
6.89999999999999 48765.198799793725 109.96742154568412
6.999999999999989 48736.53685816212 111.83078984984434
7.099999999999989 48704.28846437934 113.04750412984558
7.199999999999989 48680.461070730795 111.31378094906661
7.299999999999988 48651.7346456097 113.64237930371534
7.399999999999988 48616.08896891447 106.0656845368719
7.499999999999988 48591.04208149836 114.19482509890186
7.599999999999987 48562.30293644413 116.10892052651015
7.699999999999987 48533.45094208754 111.10045197067824
7.7999999999999865 48506.08824778907 109.21768791824533
7.899999999999986 48472.579300756406 111.22434149220064
7.999999999999986 48438.325770869895 113.43931067692331
