# Rounds: 50, repetitions: 1000
# Good arm ~ N(5.0,1.0), 19 bad arm(s) ~ N(1.0,1.0)
# Observation noise range from 0.5 to 8.0 with step size 0.1

# Observation noise | mean | standard deviation

0.5 179.3892333448292 10.01092654092902
0.6 179.6610997294871 10.274986596140945
0.7 177.94328309454383 10.700594342008163
0.7999999999999999 177.58680998884006 11.425150786355355
0.8999999999999999 176.59384630528416 11.501039425257625
0.9999999999999999 174.34122560824667 11.799185590216236
1.0999999999999999 172.66328711017195 12.241307786592698
1.1999999999999997 171.11413128746312 13.506422405187337
1.2999999999999996 167.27313883736173 14.476269609621703
1.3999999999999995 165.23103725102087 15.961016917843345
1.4999999999999993 162.32369479076178 16.783398300269543
1.5999999999999992 157.54935391501834 17.237640508312293
1.699999999999999 152.9434722142479 18.78455873830437
1.799999999999999 148.43441188325784 20.514522903775475
1.8999999999999988 143.53472403410606 21.398740739178997
1.9999999999999987 140.03602508469854 21.255527493742566
2.0999999999999988 135.0905413665193 21.738806408091392
2.199999999999999 129.57663275911568 23.149555405728556
2.299999999999999 125.87809001488165 23.610625527696307
2.399999999999999 121.93948461281295 23.5632310586197
2.499999999999999 116.91006696924173 23.432532914409173
2.599999999999999 113.1627091876411 23.21180604159569
2.6999999999999993 109.8100377155909 23.334742653761904
2.7999999999999994 105.84616537311126 23.368303489717135
2.8999999999999995 102.50168174457947 23.026804649200503
2.9999999999999996 99.12389797818501 21.732989566020112
3.0999999999999996 95.5330018854413 22.0255055817463
3.1999999999999997 93.47249320909634 20.628423140201644
3.3 90.74083697626294 20.79101502125798
3.4 89.14976410284983 19.243497356242163
3.5 87.09930047344167 19.50813288961617
3.6 84.77440666224638 18.745406824309033
3.7 82.86247577233893 18.36573728354207
3.8000000000000003 81.3285796374445 18.149082794029137
3.9000000000000004 80.83915990106843 17.694025446094006
4.0 79.45143814218632 16.7000016105241
4.1 77.70433034744255 17.015297882392
4.199999999999999 76.45876651153402 16.144120358727196
4.299999999999999 74.97344880021947 16.123132704023767
4.399999999999999 75.14606756591682 15.175794285778249
4.499999999999998 73.9016799469063 15.18401373210928
4.599999999999998 73.37436480504782 14.415089659241952
4.6999999999999975 72.75765185894761 14.178381027977457
4.799999999999997 72.23747190921566 14.09393240007336
4.899999999999997 71.74723317858898 13.624894622906371
4.9999999999999964 70.36413681091206 13.240988465547865
5.099999999999996 70.90027113911624 13.50935521975845
5.199999999999996 69.9676437689252 13.325581760845736
5.299999999999995 69.845499182827 12.76849809986124
5.399999999999995 69.41841996683696 12.000879669535063
5.499999999999995 68.87990379528866 12.48625438652938
5.599999999999994 68.6082521940043 12.005733195248217
5.699999999999994 68.69420597659037 12.610678350241567
5.799999999999994 67.5828392659371 11.948955888620626
5.899999999999993 67.02298203750986 11.520371705721788
5.999999999999993 67.5858103307015 11.74748782361035
6.0999999999999925 66.73300331748273 11.34271056641727
6.199999999999992 66.17446464354076 11.715526115119868
6.299999999999992 67.1439294689814 11.465609997509171
6.3999999999999915 66.52244920156227 11.842371944860638
6.499999999999991 66.21619659924701 11.430326716177301
6.599999999999991 66.56767859769887 11.429122215244673
6.69999999999999 65.53788335248825 10.825741033653799
6.79999999999999 65.45327896583237 11.218492088065233
6.89999999999999 66.02969401600797 11.579516009999326
6.999999999999989 64.54635075674578 10.8642671091372
7.099999999999989 64.55186537597871 10.959324832914227
7.199999999999989 64.80165819908356 11.184304241871674
7.299999999999988 64.25835110199557 10.908548952661654
7.399999999999988 64.7207297944233 10.362800769817117
7.499999999999988 63.376086135085636 11.112336051422187
7.599999999999987 64.5467500222173 11.318979493232934
7.699999999999987 63.756383244734536 10.141164156722358
7.7999999999999865 64.24566278707293 10.863102602274319
7.899999999999986 64.47794719763807 10.702682128804033
7.999999999999986 63.49942922065052 10.588160365547244
