# Rounds: 50, repetitions: 1000
# Good arm ~ N(5.0,0.0), 19 bad arm(s) ~ N(0.0,0.0)
# Observation noise range from 0.5 to 8.0 with step size 0.1

# Observation noise | mean | standard deviation

0.5 163.08500000000024 4.413304006325911
0.6 162.5600000000001 4.244339102194173
0.7 162.47499999999977 4.4910516078692115
0.7999999999999999 162.26000000000016 4.8389891316075335
0.8999999999999999 161.63000000000002 4.451169836448956
0.9999999999999999 161.65 5.427426365871473
1.0999999999999999 161.01000000000008 6.129230577117156
1.1999999999999997 160.55000000000004 6.2439159576732255
1.2999999999999996 160.2800000000002 6.225781907548623
1.3999999999999995 158.87499999999983 7.107030665818526
1.4999999999999993 156.84500000000003 8.534859039188573
1.5999999999999992 154.13000000000014 10.670377545192904
1.699999999999999 151.70000000000007 11.466973946577678
1.799999999999999 147.64500000000007 13.386866070263922
1.8999999999999988 143.27499999999998 14.242620096991491
1.9999999999999987 138.37499999999994 14.790305207402858
2.0999999999999988 133.4249999999999 15.110350680831184
2.199999999999999 127.00499999999997 16.382104515243093
2.299999999999999 121.21000000000014 17.745444508402745
2.399999999999999 115.54499999999994 18.23898669432147
2.499999999999999 109.6100000000001 20.016207146923406
2.599999999999999 103.05500000000005 19.499287094588794
2.6999999999999993 97.36999999999998 20.8378817857602
2.7999999999999994 91.82499999999996 20.80089065525931
2.8999999999999995 86.3399999999999 21.600253956168444
2.9999999999999996 81.92999999999992 21.579870036466616
3.0999999999999996 76.08500000000002 21.109082603665406
3.1999999999999997 69.65000000000005 22.11824397904849
3.3 67.51000000000012 22.286691019453666
3.4 63.974999999999994 21.59028752739306
3.5 58.785000000000004 22.145862236865288
3.6 55.96000000000004 20.65078339566942
3.7 53.175000000000004 21.082904540500724
3.8000000000000003 49.68999999999997 20.091230862183586
3.9000000000000004 47.165000000000056 19.353613030577467
4.0 44.44000000000003 18.8770427435746
4.1 42.504999999999995 18.600966936451748
4.199999999999999 40.51499999999996 18.38199316376418
4.299999999999999 37.43499999999996 16.818996808777076
4.399999999999999 37.12 17.26423046804156
4.499999999999998 35.42499999999993 16.53686315003078
4.599999999999998 33.160000000000004 15.711819158240786
4.6999999999999975 32.169999999999966 16.09192499516604
4.799999999999997 31.385 15.805270689918055
4.899999999999997 30.305000000000014 14.862801817890093
4.9999999999999964 28.960000000000004 14.287145359466393
5.099999999999996 27.97499999999999 14.64714695474557
5.199999999999996 27.62499999999998 14.60985362085544
5.299999999999995 26.07000000000001 14.121065983292665
5.399999999999995 26.39000000000001 14.309880246622338
5.499999999999995 25.754999999999978 13.652522344474146
5.599999999999994 25.254999999999992 13.119912618120116
5.699999999999994 24.23 12.68534658643658
5.799999999999994 23.444999999999993 12.653738265512375
5.899999999999993 23.084999999999997 12.050019833094806
5.999999999999993 22.32000000000001 12.440754493694195
6.0999999999999925 22.054999999999993 12.29647015115225
6.199999999999992 21.10999999999999 11.927286370342587
6.299999999999992 20.860000000000024 11.377163083995937
6.3999999999999915 20.87500000000001 10.891648314327956
6.499999999999991 20.70500000000002 11.117624592356806
6.599999999999991 20.374999999999996 11.018429143066664
6.69999999999999 19.935 10.769715026952273
6.79999999999999 19.74499999999998 10.806329245018965
6.89999999999999 19.87 11.294275570423286
6.999999999999989 19.660000000000018 10.791239541908563
7.099999999999989 19.15500000000003 10.527193206016332
7.199999999999989 19.24999999999999 10.30260373127316
7.299999999999988 18.90500000000004 11.024859297175746
7.399999999999988 18.524999999999988 10.356477761847096
7.499999999999988 17.89499999999999 10.146276258900226
7.599999999999987 18.04500000000001 10.550558719294873
7.699999999999987 17.55500000000002 10.414193700447031
7.7999999999999865 17.99000000000002 10.245236203468677
7.899999999999986 17.825 10.067061175969803
7.999999999999986 17.62000000000001 10.13352299490599
