# Rounds: 50, repetitions: 1000
# Good arm ~ N(5.0,1.0), 19 bad arm(s) ~ N(0.5,1.0)
# Observation noise range from 0.5 to 8.0 with step size 0.1

# Observation noise | mean | standard deviation

0.5 171.06468258671748 9.89867205507377
0.6 170.36048027437175 10.00011054312395
0.7 170.20218163932 10.027128981811025
0.7999999999999999 169.51222553589247 10.284115456567015
0.8999999999999999 169.22907048958058 11.168398642711665
0.9999999999999999 168.1769612899371 11.295987211418353
1.0999999999999999 166.41899680501842 11.660247798151369
1.1999999999999997 165.48846814748916 12.200185647954724
1.2999999999999996 162.92734103322982 13.334917557214544
1.3999999999999995 160.58277262650034 13.95332516621456
1.4999999999999993 158.1787324241237 14.521773680212018
1.5999999999999992 153.0527947101125 16.57284820334449
1.699999999999999 149.03285655748445 17.989897128203328
1.799999999999999 144.9506368066484 18.744261539815646
1.8999999999999988 140.5322646784484 20.139613752788886
1.9999999999999987 135.6405118658995 21.484976939802436
2.0999999999999988 131.0686885706526 21.56495192346601
2.199999999999999 125.54108094113464 22.878927204023014
2.299999999999999 121.3444616875085 23.053061366262796
2.399999999999999 114.2776340072927 25.10841102129327
2.499999999999999 110.3211304779291 24.99068772102365
2.599999999999999 106.57890221075274 26.13216118016861
2.6999999999999993 99.36932687839965 24.591297461708873
2.7999999999999994 95.83596295844697 24.825590166395738
2.8999999999999995 92.01930709736054 25.518246688367768
2.9999999999999996 88.20079797956944 24.99193924990031
3.0999999999999996 84.38944059053034 24.145453052453064
3.1999999999999997 80.55960126945817 23.58526632731721
3.3 76.1818450151262 24.46579006600241
3.4 73.75241106714054 22.694202783736756
3.5 70.89740628091205 22.532249039183935
3.6 69.68880774566368 22.03848910807255
3.7 67.40071919196212 21.76382498049889
3.8000000000000003 64.60173897095328 22.021287287126235
3.9000000000000004 62.300253116797016 20.20894427122696
4.0 61.27029979667171 19.549656935502032
4.1 60.12731276269776 19.078638379459083
4.199999999999999 57.36139515901581 18.230877981659027
4.299999999999999 56.28254966252492 17.07894944087383
4.399999999999999 56.07300875683772 17.407419229670747
4.499999999999998 54.61593621516707 17.357296243263452
4.599999999999998 53.84745089979543 16.37894053941329
4.6999999999999975 52.63112702426684 16.58802374519355
4.799999999999997 50.80535846334789 15.714283485422477
4.899999999999997 50.33091577285782 15.76336299509188
4.9999999999999964 49.87547948309824 15.359930565048183
5.099999999999996 50.044993608138704 15.509685209373158
5.199999999999996 49.1972646885508 14.452711285797157
5.299999999999995 48.50739298795795 14.747038105161456
5.399999999999995 47.07525302560245 13.887153219983698
5.499999999999995 47.18451774398489 13.468525022710187
5.599999999999994 46.21258351191313 13.830337985507642
5.699999999999994 46.904162212621706 13.495041762143343
5.799999999999994 45.80256508342175 13.747830637309402
5.899999999999993 45.097366079472756 13.366693014663207
5.999999999999993 44.303960770741405 13.152815989179109
6.0999999999999925 43.49663520327904 12.617349186707038
6.199999999999992 44.070217549068495 12.582498134851837
6.299999999999992 43.79371891562723 12.748533344803104
6.3999999999999915 42.979620254676966 12.50280856634223
6.499999999999991 42.22859660917518 12.278070426252832
6.599999999999991 43.3194890641141 12.75096856018172
6.69999999999999 43.3532434026035 12.156758671576835
6.79999999999999 43.474569845152324 12.65818270909119
6.89999999999999 42.36603561174834 11.933124424240289
6.999999999999989 42.490910910149445 11.816957392895526
7.099999999999989 41.315169354340114 11.941971912677207
7.199999999999989 40.89595367246905 11.509340271158194
7.299999999999988 41.538032820269024 11.946726947287603
7.399999999999988 42.03140678299324 11.938975175581886
7.499999999999988 41.320808962351265 11.63269946933481
7.599999999999987 40.787469288768825 11.620166988554772
7.699999999999987 40.469771851745705 11.149693757409063
7.7999999999999865 40.916525764799175 11.81329184065507
7.899999999999986 40.996343114784544 11.638127155076496
7.999999999999986 41.20778901563922 11.416443688219793
