# Rounds: 50, repetitions: 1000
# Good arm ~ N(5.0,0.0), 10 bad arm(s) ~ N(2.0,0.0)
# Observation noise range from 0.5 to 8.0 with step size 0.1

# Observation noise | mean | standard deviation

0.5 223.71900000000002 4.648617928873979
0.6 223.28700000000015 5.014356865518693
0.7 222.95100000000008 5.745747350224602
0.7999999999999999 222.29999999999978 6.37562927471857
0.8999999999999999 221.85000000000016 6.643766976621012
0.9999999999999999 220.21800000000005 7.722182859017797
1.0999999999999999 219.20100000000005 7.680858975049241
1.1999999999999997 217.00499999999985 8.414260203652736
1.2999999999999996 214.86900000000009 8.319558525189514
1.3999999999999995 211.78499999999997 8.879054713910282
1.4999999999999993 209.34899999999988 9.27163211965197
1.5999999999999992 206.565 9.990073902458146
1.699999999999999 202.49099999999999 10.755258927361686
1.799999999999999 200.21700000000013 10.62585619231789
1.8999999999999988 196.734 11.842021680333014
1.9999999999999987 194.5650000000001 10.919845146247154
2.0999999999999988 190.38000000000002 11.56197557856267
2.199999999999999 186.70799999999974 13.195106928208132
2.299999999999999 183.73499999999996 13.188506803717814
2.399999999999999 180.58200000000008 13.644245726365448
2.499999999999999 177.726 13.529226288445425
2.599999999999999 174.68399999999997 14.397827663972139
2.6999999999999993 171.43500000000037 14.14403863218808
2.7999999999999994 167.91900000000004 14.561541040613715
2.8999999999999995 166.5300000000001 14.460851158082498
2.9999999999999996 163.00800000000004 14.56860254726511
3.0999999999999996 160.35300000000015 15.285746466726595
3.1999999999999997 157.695 15.350492259618651
3.3 154.9409999999998 14.582598231151112
3.4 154.0139999999997 15.005030988137117
3.5 150.41700000000012 15.473802039238779
3.6 148.77000000000018 15.227967395256393
3.7 146.90699999999993 14.49138886895772
3.8000000000000003 145.32300000000004 14.347840657448495
3.9000000000000004 143.00100000000015 14.687161458624738
4.0 142.01699999999974 13.928413826122195
4.1 140.04599999999996 13.903423649921246
4.199999999999999 138.59699999999978 13.871157125488853
4.299999999999999 137.48700000000028 13.676361865418514
4.399999999999999 135.99299999999982 13.490550246225911
4.499999999999998 135.23399999999998 12.575507440552313
4.599999999999998 133.89599999999976 12.516862859992349
4.6999999999999975 133.278 12.337054710056174
4.799999999999997 131.48400000000007 12.601449938024611
4.899999999999997 131.69399999999985 11.698770244142136
4.9999999999999964 130.39200000000022 12.064654652823343
5.099999999999996 129.816 11.581289663516332
5.199999999999996 128.937 11.575276152991693
5.299999999999995 128.04899999999986 11.13330811347419
5.399999999999995 127.60199999999996 11.496511025775
5.499999999999995 127.1579999999998 10.42044248684389
5.599999999999994 126.96300000000005 10.703185936401793
5.699999999999994 125.69399999999999 10.920513798426414
5.799999999999994 125.88300000000011 10.524736627634983
5.899999999999993 124.88100000000006 10.70399058362882
5.999999999999993 124.43699999999995 9.759984031149251
6.0999999999999925 125.067 10.585677473245038
6.199999999999992 123.50399999999993 9.592497068021446
6.299999999999992 123.807 9.71143980381196
6.3999999999999915 123.59099999999995 9.571067042097457
6.499999999999991 123.219 9.459096865637528
6.599999999999991 122.49600000000005 9.543535144958764
6.69999999999999 122.40299999999993 8.822268609797783
6.79999999999999 121.79699999999978 8.86850841130803
6.89999999999999 122.028 8.881108607042814
6.999999999999989 121.31099999999996 8.901883088567427
7.099999999999989 121.81199999999993 8.669707020414236
7.199999999999989 120.99599999999991 8.385839630371315
7.299999999999988 120.756 8.461090594837952
7.399999999999988 120.85800000000003 8.71583626520153
7.499999999999988 119.9669999999999 8.391801554692128
7.599999999999987 120.22800000000008 8.570967126146138
7.699999999999987 120.26400000000002 8.419334248572719
7.7999999999999865 120.30599999999997 8.310199962902415
7.899999999999986 119.92199999999988 8.493412391615879
7.999999999999986 119.9759999999999 8.26581803258137
