# Rounds: 100, repetitions: 1000
# Good arm ~ N(5.0,0.0), 7 bad arm(s) ~ N(2.0,0.0)
# Observation noise range from 0.5 to 8.0 with step size 0.1

# Observation noise | mean | standard deviation

0.5 482.2270000000003 3.8223135770212715
0.6 481.6629999999998 4.937591600245125
0.7 481.08400000000006 5.438614025882233
0.7999999999999999 481.0299999999991 5.3287423934260305
0.8999999999999999 479.71600000000007 6.460424218352933
0.9999999999999999 479.3830000000001 6.456004258904329
1.0999999999999999 477.24100000000016 6.480039344781006
1.1999999999999997 475.2610000000002 6.952497120906705
1.2999999999999996 472.55499999999967 7.449998488421152
1.3999999999999995 470.122 7.62175880012003
1.4999999999999993 467.08000000000004 7.338900425776311
1.5999999999999992 464.17900000000014 8.539548166201916
1.699999999999999 460.819 7.8959854094081035
1.799999999999999 457.9750000000001 8.19545853143927
1.8999999999999988 455.4159999999998 7.9747439169255765
1.9999999999999987 451.80100000000004 8.765057057727882
2.0999999999999988 448.65999999999957 9.28119284039184
2.199999999999999 445.34200000000016 9.034969101588949
2.299999999999999 441.8169999999999 9.79762749365909
2.399999999999999 438.09399999999994 9.930749406957347
2.499999999999999 435.16599999999954 10.431551239449563
2.599999999999999 431.1850000000005 10.474755152054646
2.6999999999999993 427.4919999999997 11.149719828419574
2.7999999999999994 424.47099999999983 11.619473790631444
2.8999999999999995 420.3430000000001 12.498302227045013
2.9999999999999996 416.7879999999999 12.367053003848573
3.0999999999999996 412.5879999999998 13.50328088260758
3.1999999999999997 407.8449999999999 13.454218334447782
3.3 404.8270000000003 14.19812162427334
3.4 401.3859999999998 14.203969753444118
3.5 396.88899999999944 14.292829109870562
3.6 393.44500000000033 14.986713334703417
3.7 389.0049999999997 15.031730703013736
3.8000000000000003 385.63300000000027 16.10228538421162
3.9000000000000004 381.29800000000006 16.766344452691776
4.0 376.82800000000003 17.44846310896365
4.1 372.60100000000057 17.79546227209281
4.199999999999999 369.38800000000003 18.07351952742211
4.299999999999999 365.74900000000014 17.887312681198225
4.399999999999999 362.81200000000047 18.248826693123984
4.499999999999998 358.65999999999985 18.625179121213794
4.599999999999998 353.5570000000004 19.66100979874395
4.6999999999999975 352.8580000000004 20.273846819606423
4.799999999999997 347.77599999999984 19.498102471779116
4.899999999999997 343.6630000000001 19.852646134925124
4.9999999999999964 340.7350000000003 20.55688109515549
5.099999999999996 337.1379999999999 19.972928525228173
5.199999999999996 333.9550000000003 20.043370767206603
5.299999999999995 332.5630000000002 19.629349004547805
5.399999999999995 327.4360000000002 20.52742748810185
5.499999999999995 323.8689999999997 20.79303222690692
5.599999999999994 321.92199999999974 20.93691166983017
5.699999999999994 320.1069999999997 20.826360418668642
5.799999999999994 317.1070000000004 21.52953952299196
5.899999999999993 314.7429999999999 19.96831702183947
5.999999999999993 310.51299999999986 20.254631102073496
6.0999999999999925 307.7169999999998 20.495633241790348
6.199999999999992 307.5999999999997 21.313617015191717
6.299999999999992 304.43200000000013 20.64964367207782
6.3999999999999915 302.473 21.071290189978203
6.499999999999991 299.2690000000002 19.648733081593594
6.599999999999991 298.5640000000001 21.071020191056103
6.69999999999999 295.81899999999985 20.663863003664968
6.79999999999999 292.6810000000002 19.950721046374984
6.89999999999999 291.73599999999954 20.008164099452753
6.999999999999989 289.67499999999984 20.148184144590413
7.099999999999989 288.20199999999966 20.18054633676831
7.199999999999989 286.5789999999998 19.02576512886506
7.299999999999988 284.6649999999999 19.637474516989336
7.399999999999988 283.8100000000002 18.41491267991813
7.499999999999988 281.2389999999998 20.005501720754197
7.599999999999987 280.9509999999995 19.363407255453257
7.699999999999987 278.51499999999976 19.241465874745845
7.7999999999999865 277.8310000000003 17.98153983325051
7.899999999999986 276.0340000000001 18.531277674576366
7.999999999999986 275.179 18.177441469535218
