# Rounds: 100, repetitions: 1000
# Good arm ~ N(5.0,0.0), 7 bad arm(s) ~ N(4.0,0.0)
# Observation noise range from 0.5 to 8.0 with step size 0.1

# Observation noise | mean | standard deviation

0.5 488.995 6.060503667576214
0.6 486.56499999999977 5.623468538046474
0.7 483.58200000000033 5.616121154036594
0.7999999999999999 480.9569999999998 5.211555555811662
0.8999999999999999 477.4579999999997 6.239644955377606
0.9999999999999999 474.5349999999999 5.353637682588958
1.0999999999999999 471.449 5.843590210354135
1.1999999999999997 468.3370000000002 6.415652078440026
1.2999999999999996 465.6419999999995 6.3294468872009535
1.3999999999999995 462.72799999999967 6.783659339474097
1.4999999999999993 460.456 6.868131859191048
1.5999999999999992 457.8500000000002 6.539592209478075
1.699999999999999 455.56700000000035 6.885268180537191
1.799999999999999 453.284 7.3406559127389475
1.8999999999999988 451.0240000000002 8.092274643690049
1.9999999999999987 449.4310000000006 7.844665561882031
2.0999999999999988 447.44800000000055 7.85920244446363
2.199999999999999 445.2189999999996 7.747713602480812
2.299999999999999 444.4340000000001 8.088823961063373
2.399999999999999 442.317 8.231297908912358
2.499999999999999 441.4260000000005 7.901199462926675
2.599999999999999 440.08200000000016 8.214179736817846
2.6999999999999993 438.7329999999997 7.851710664585151
2.7999999999999994 437.4299999999995 8.006947683806311
2.8999999999999995 436.12499999999955 8.454398373145871
2.9999999999999996 435.5240000000002 8.010092732645829
3.0999999999999996 434.07299999999964 7.97491506351448
3.1999999999999997 433.56699999999995 7.97126414391419
3.3 432.4409999999998 7.937980255110891
3.4 431.86800000000017 7.842708976118145
3.5 431.02699999999976 7.840774754368914
3.6 430.5189999999995 7.866608069716104
3.7 429.0699999999995 7.908580507628771
3.8000000000000003 429.1230000000002 7.758870476497919
3.9000000000000004 428.2939999999998 7.690169224581644
4.0 427.56600000000054 7.822713010128823
4.1 427.5290000000004 7.6263569494431875
4.199999999999999 426.196 7.2645962281711425
4.299999999999999 425.7799999999993 7.428241970936231
4.399999999999999 425.5459999999999 6.925449143979461
4.499999999999998 425.81100000000026 7.393371419111916
4.599999999999998 424.5150000000002 6.9871736485932265
4.6999999999999975 424.25299999999964 6.771472797246088
4.799999999999997 424.13800000000043 7.091914498303773
4.899999999999997 423.69899999999967 7.114563656051993
4.9999999999999964 423.76000000000005 6.70800994314986
5.099999999999996 423.02500000000015 6.632825142378577
5.199999999999996 422.78700000000043 6.544498564554918
5.299999999999995 422.28499999999997 6.670702607167667
5.399999999999995 421.9399999999995 6.3615146678184225
5.499999999999995 421.7109999999998 6.293575143595887
5.599999999999994 421.5429999999998 6.26541350641811
5.699999999999994 421.6370000000004 6.402047892449522
5.799999999999994 421.16700000000037 6.185901419872162
5.899999999999993 420.8740000000005 6.270202503862161
5.999999999999993 420.34100000000007 6.156185313781388
6.0999999999999925 420.6439999999995 5.864951974369583
6.199999999999992 420.69100000000043 5.802343163428566
6.299999999999992 420.1449999999997 5.538831433944681
6.3999999999999915 419.81199999999984 5.723234348811112
6.499999999999991 419.7479999999996 5.746957762462167
6.599999999999991 419.8220000000002 5.706213882854125
6.69999999999999 419.57299999999987 5.668403814285071
6.79999999999999 419.52199999999954 5.479922038272583
6.89999999999999 419.19600000000014 5.508350563092909
6.999999999999989 419.40299999999974 5.505897375170179
7.099999999999989 418.79500000000024 5.288188720151721
7.199999999999989 418.8279999999997 5.2678426481972815
7.299999999999988 419.145 5.520729431284701
7.399999999999988 418.5580000000002 5.005566071054482
7.499999999999988 418.6089999999998 5.144957685889122
7.599999999999987 418.5080000000002 5.0946925218203205
7.699999999999987 418.4389999999999 5.0760265016098
7.7999999999999865 418.1860000000003 4.900348703655428
7.899999999999986 418.2970000000002 5.099293460254447
7.999999999999986 418.10599999999965 4.794971924397027
