# Rounds: 100, repetitions: 1000
# Good arm ~ N(5.0,0.0), 7 bad arm(s) ~ N(0.5,0.0)
# Observation noise range from 0.5 to 8.0 with step size 0.1

# Observation noise | mean | standard deviation

0.5 472.8070000000001 2.4997999919993648
0.6 472.75749999999977 2.3983736043298123
0.7 472.3840000000002 3.2041864506939577
0.7999999999999999 472.41550000000063 3.3779461615410904
0.8999999999999999 472.4920000000007 2.9517196087448156
0.9999999999999999 471.9565000000001 3.9336155227832084
1.0999999999999999 471.4930000000001 4.598216457997056
1.1999999999999997 471.03399999999993 5.061171747674579
1.2999999999999996 469.9719999999999 6.132562622943516
1.3999999999999995 468.9414999999998 6.210547371097755
1.4999999999999993 467.3890000000004 6.872147073906773
1.5999999999999992 464.81049999999993 7.656792162271121
1.699999999999999 462.41649999999987 8.021884340875157
1.799999999999999 460.1890000000001 8.260418482953124
1.8999999999999988 456.60249999999996 8.722030587401507
1.9999999999999987 452.9349999999993 8.677907644189403
2.0999999999999988 449.90199999999993 8.807011948411297
2.199999999999999 446.3560000000001 9.254264174174274
2.299999999999999 443.2465 9.334190637910963
2.399999999999999 439.0389999999997 9.384831061561725
2.499999999999999 435.5739999999996 10.285271547743001
2.599999999999999 431.8885000000001 10.349295902411708
2.6999999999999993 428.1399999999999 11.155776591136593
2.7999999999999994 424.38249999999994 11.269824874535662
2.8999999999999995 419.8104999999998 12.196232526392643
2.9999999999999996 416.3499999999998 11.906732140695492
3.0999999999999996 412.0615 11.702902446644423
3.1999999999999997 408.3355000000001 12.939285716949954
3.3 403.83999999999986 13.563364806155839
3.4 398.5299999999999 14.247617154969996
3.5 394.8039999999999 14.385984170036465
3.6 390.41649999999964 14.40483519610779
3.7 386.1729999999998 14.44455662927099
3.8000000000000003 381.47949999999986 15.580262331691397
3.9000000000000004 377.6769999999997 15.954473235309765
4.0 371.9440000000002 16.742914596604425
4.1 366.86799999999994 16.82516455081978
4.199999999999999 363.0070000000003 17.36088567301078
4.299999999999999 356.9094999999998 18.790480086785735
4.399999999999999 354.1869999999998 18.42285082261786
4.499999999999998 348.0939999999997 19.399729727847085
4.599999999999998 343.3915000000006 20.277849218270642
4.6999999999999975 338.8195 20.562015130239907
4.799999999999997 333.84699999999987 19.860413566364297
4.899999999999997 327.45249999999993 21.437515266718982
4.9999999999999964 324.41499999999985 20.876616299297822
5.099999999999996 318.91149999999993 22.0014085851277
5.199999999999996 314.0289999999998 23.167204802875666
5.299999999999995 310.3344999999996 22.124304386682844
5.399999999999995 303.3730000000001 23.9434993716909
5.499999999999995 298.79200000000003 23.069383009357512
5.599999999999994 293.12199999999984 25.282035070327893
5.699999999999994 289.3060000000002 24.31023141295351
5.799999999999994 283.92849999999976 24.78237890223725
5.899999999999993 280.78750000000014 24.85731239956828
5.999999999999993 274.87900000000036 25.345300220025877
6.0999999999999925 272.09349999999984 26.54494569389607
6.199999999999992 267.75999999999976 25.468422419548112
6.299999999999992 260.9604999999996 26.16797570892144
6.3999999999999915 257.28399999999993 27.151861217374535
6.499999999999991 254.0799999999998 25.774122786341454
6.599999999999991 250.46649999999997 25.919064907432023
6.69999999999999 246.50199999999984 26.26046663919186
6.79999999999999 241.26400000000004 26.154298907662433
6.89999999999999 236.5794999999999 27.427471555831477
6.999999999999989 233.5600000000002 26.9645412808467
7.099999999999989 230.58999999999992 27.728753736577897
7.199999999999989 226.75149999999977 28.506439884083353
7.299999999999988 222.6385000000002 27.433823693251966
7.399999999999988 218.80900000000014 27.944586576274805
7.499999999999988 216.44650000000007 26.26548616556552
7.599999999999987 211.77999999999992 28.227502402654924
7.699999999999987 211.8385 27.5099703056222
7.7999999999999865 205.78150000000008 27.487325457577924
7.899999999999986 203.58999999999986 27.573342002542745
7.999999999999986 200.03050000000007 26.793716109807807
