# Rounds: 100, repetitions: 1000
# Good arm ~ N(5.0,2.0), 7 bad arm(s) ~ N(0.0,2.0)
# Observation noise range from 0.5 to 8.0 with step size 0.1

# Observation noise | mean | standard deviation

0.5 461.5681952018116 38.79320291404341
0.6 462.2179496026358 33.45583149358662
0.7 463.4715532004889 30.61905323546427
0.7999999999999999 463.940940155651 23.081528640048983
0.8999999999999999 462.0236515087592 30.19049681666065
0.9999999999999999 461.8867998078941 24.03810032598369
1.0999999999999999 461.21710603990874 22.655428004485923
1.1999999999999997 459.8190391580689 24.468515477867065
1.2999999999999996 458.9240766266924 23.524679247116662
1.3999999999999995 457.39372169925275 23.43323643067142
1.4999999999999993 456.49229880125563 23.29353080039389
1.5999999999999992 455.0003965697724 23.500165087282987
1.699999999999999 451.32021541582145 23.872631926762548
1.799999999999999 448.6269404548286 25.00504906219757
1.8999999999999988 447.32923888091466 27.8360474120172
1.9999999999999987 443.5140866827234 26.684246726338475
2.0999999999999988 441.425961313609 25.986036247352637
2.199999999999999 438.1137127894468 26.740245635088225
2.299999999999999 435.27777555482436 27.507993549982064
2.399999999999999 432.04084737507685 28.012862299891435
2.499999999999999 428.4077892483619 28.23867368710876
2.599999999999999 424.50548418552125 29.380700509552536
2.6999999999999993 421.0649013356547 29.13455564180142
2.7999999999999994 417.6207320014949 30.07896203608298
2.8999999999999995 413.4543021824304 31.90746140637555
2.9999999999999996 408.38944051177407 31.22048318834535
3.0999999999999996 402.96003225664776 31.152571009190254
3.1999999999999997 400.0755475035297 32.142708347394425
3.3 396.95310133749445 31.82284526934051
3.4 391.99822627289325 33.989743890749644
3.5 388.9341181514142 32.56695499750501
3.6 381.0404956119123 35.11147165319588
3.7 378.2049454440313 35.39626320203312
3.8000000000000003 373.55232899559445 35.19831709878671
3.9000000000000004 373.0363087872581 34.87827835787708
4.0 364.6278687513703 37.51204372055896
4.1 359.9509794767381 37.408683964421506
4.199999999999999 355.02699677161536 37.53236296697308
4.299999999999999 350.98219165751976 37.89023124714258
4.399999999999999 345.668207298896 38.000081386270864
4.499999999999998 338.6495488141195 40.17065301423566
4.599999999999998 334.87247366736307 40.352875985122665
4.6999999999999975 327.3926111226857 40.22273638570655
4.799999999999997 322.29705894452144 40.785549936747465
4.899999999999997 319.1970211456711 42.724299299654554
4.9999999999999964 314.4876787804439 42.840213053037935
5.099999999999996 310.1850384277353 42.02051946795041
5.199999999999996 305.9103786754028 43.37433169014802
5.299999999999995 297.22940838518167 43.14953918433061
5.399999999999995 293.29705936430645 43.98493328557394
5.499999999999995 288.782585261711 44.204688230449996
5.599999999999994 282.89947580391544 42.715547013181435
5.699999999999994 280.97102211619347 45.31106843189637
5.799999999999994 272.92900265099587 44.98946460795718
5.899999999999993 269.0314575273751 43.29266706680567
5.999999999999993 263.4566082716569 45.45226714798399
6.0999999999999925 260.93803189165243 45.65459124154749
6.199999999999992 255.3203614899269 43.375177144322336
6.299999999999992 249.1307682131349 44.85674051905028
6.3999999999999915 244.3271153946276 46.62531954633275
6.499999999999991 240.58905096004796 46.209384169472784
6.599999999999991 233.16276940737876 46.49722251591984
6.69999999999999 231.0278450241942 46.15745266038727
6.79999999999999 226.48719491111757 45.57554162998492
6.89999999999999 221.0720896562152 45.146180054177826
6.999999999999989 217.63549191405784 47.41822258754116
7.099999999999989 213.0451641548613 45.32207481515002
7.199999999999989 208.61518276824987 45.18074324698182
7.299999999999988 205.3170525398879 45.660974881574916
7.399999999999988 200.4052085467862 45.8814840978824
7.499999999999988 196.21258654754467 44.40271220657708
7.599999999999987 192.22236451912494 43.19242632036171
7.699999999999987 189.6340251859991 42.57983395992861
7.7999999999999865 186.86921565056284 45.426595772010444
7.899999999999986 183.3468404104106 42.888142701365844
7.999999999999986 179.5864192348738 43.32853715816088
