# Rounds: 100, repetitions: 1000
# Good arm ~ N(5.0,1.0), 7 bad arm(s) ~ N(1.0,1.0)
# Observation noise range from 0.5 to 8.0 with step size 0.1

# Observation noise | mean | standard deviation

0.5 474.53672838647105 11.136825766415
0.6 474.76476668680033 10.598203435847127
0.7 473.5607117718287 11.434266552622875
0.7999999999999999 473.3841436993275 11.29799033705793
0.8999999999999999 473.12156683469357 11.466258973150442
0.9999999999999999 471.8735918448965 11.721329259260015
1.0999999999999999 471.83910090728125 11.501310535421979
1.1999999999999997 470.2454403163876 12.444574898496803
1.2999999999999996 468.82084653826746 11.826350063453154
1.3999999999999995 466.6368977490564 13.410156630508867
1.4999999999999993 464.7623621088875 13.09018567869692
1.5999999999999992 461.5167234091743 13.788142781922637
1.699999999999999 460.23421837071595 14.258864134414992
1.799999999999999 456.0723584940329 14.608788324161901
1.8999999999999988 453.25324766932323 14.307959151314405
1.9999999999999987 450.0638131922757 15.14481911397828
2.0999999999999988 447.48748843926194 15.833962139256569
2.199999999999999 443.989333721455 15.35632585856162
2.299999999999999 439.9298902578535 16.440322905769218
2.399999999999999 436.78669519528523 16.803892317577223
2.499999999999999 434.24943132903377 17.012986417579313
2.599999999999999 429.735087678043 16.6192911285473
2.6999999999999993 424.90936796037624 18.36657069354006
2.7999999999999994 422.73725151240507 18.377872864869197
2.8999999999999995 418.37997612044006 19.31502044055294
2.9999999999999996 414.5099115638763 19.591376876297495
3.0999999999999996 410.61256320758525 19.713528955706465
3.1999999999999997 407.61897836892575 20.084236963498995
3.3 400.2833347680848 20.422402986168866
3.4 397.8302436162634 21.257885927750362
3.5 392.80575798295763 22.116744983229236
3.6 388.3621649158775 22.18296414381892
3.7 384.0156370290511 22.77448274477168
3.8000000000000003 381.8328843118941 21.80747542694092
3.9000000000000004 375.81294336121437 24.461019505766348
4.0 369.181560802549 24.951548954554056
4.1 366.42929182083634 24.765849161495773
4.199999999999999 362.1507405990228 23.69103873747844
4.299999999999999 358.74808777575095 23.642947071514143
4.399999999999999 354.78963563434945 25.608887229495057
4.499999999999998 349.46832249601465 25.79839435944844
4.599999999999998 343.98447967058405 26.135265588406295
4.6999999999999975 339.8743273242225 27.414246269363282
4.799999999999997 335.8888304974847 27.26325259734636
4.899999999999997 331.78351114785545 29.127200809617104
4.9999999999999964 326.84204378138315 28.31818026684136
5.099999999999996 322.17087319752943 28.01018425309275
5.199999999999996 318.2002916029969 27.250181345264913
5.299999999999995 314.6327437591785 27.517026017632528
5.399999999999995 307.2554772871357 28.78802923728952
5.499999999999995 305.0639245883624 30.030317582055144
5.599999999999994 298.76064685189283 29.292135114875197
5.699999999999994 295.92798101904214 30.7043182446787
5.799999999999994 290.79215536261256 30.151053888777863
5.899999999999993 284.9950997201586 30.35867278430993
5.999999999999993 283.45998787292103 29.961985584097636
6.0999999999999925 279.8892858685685 30.715875071214633
6.199999999999992 277.3048664206773 30.13801812826196
6.299999999999992 272.8326906202022 29.55562220942863
6.3999999999999915 268.3490269639227 30.373528998138738
6.499999999999991 264.83336144442893 29.02164367825896
6.599999999999991 260.477732923242 30.25012178917101
6.69999999999999 258.3563651670353 30.766997890906158
6.79999999999999 255.46256095550405 30.998887507609084
6.89999999999999 252.19717814708795 30.59053068818765
6.999999999999989 248.64607267530164 30.17918897131618
7.099999999999989 246.89228690088595 29.361553983777597
7.199999999999989 242.4608266312249 29.26613937851349
7.299999999999988 240.3700543017292 29.599768524536188
7.399999999999988 236.381753374381 30.56936831597139
7.499999999999988 234.14835830485737 29.664174055588365
7.599999999999987 232.15198972355816 29.37176821107183
7.699999999999987 228.5083563711314 28.29002845224532
7.7999999999999865 226.3425082264448 28.556971084094474
7.899999999999986 224.4382779449564 29.01157389551056
7.999999999999986 221.08684134584217 28.962777551718286
