# Rounds: 500, repetitions: 1000
# Good arm ~ N(5.0,1.0), 13 bad arm(s) ~ N(0.5,1.0)
# Observation noise range from 0.5 to 8.0 with step size 0.1

# Observation noise | mean | standard deviation

0.5 2445.6532794829363 23.33523181206837
0.6 2444.38201231876 22.406079273004227
0.7 2444.624609648818 21.937297776179253
0.7999999999999999 2443.1816906213517 22.515888201164202
0.8999999999999999 2442.49747163655 23.530328344305122
0.9999999999999999 2440.880812131817 22.610576242051543
1.0999999999999999 2439.541496589667 23.171738619536928
1.1999999999999997 2435.4710636638342 23.840126473764776
1.2999999999999996 2431.629367107666 24.402912519223438
1.3999999999999995 2425.538563692188 25.471043092744242
1.4999999999999993 2422.1871977774067 24.759130756759323
1.5999999999999992 2414.094528965943 25.919138266313343
1.699999999999999 2407.179899191658 25.495704721299983
1.799999999999999 2400.10604178009 26.038699368249034
1.8999999999999988 2391.8925765444997 25.59710761230009
1.9999999999999987 2382.483061604734 25.476798771496124
2.0999999999999988 2374.4923344713243 26.12725453806238
2.199999999999999 2367.763950285934 26.90366011211873
2.299999999999999 2359.2908761511117 27.366482645471276
2.399999999999999 2350.952431898185 27.824020443312257
2.499999999999999 2341.4689102225957 27.497367932283108
2.599999999999999 2330.7650829582 27.84772011450853
2.6999999999999993 2323.031121488201 28.349078718891516
2.7999999999999994 2313.151585909345 28.835074170142068
2.8999999999999995 2304.1734933320345 29.174443152023525
2.9999999999999996 2292.7707186853186 29.11293777008553
3.0999999999999996 2282.314261962409 30.47052681500798
3.1999999999999997 2270.953086017755 30.394276817676747
3.3 2261.1601106795065 32.35369077809783
3.4 2250.5349185064442 30.73885553411689
3.5 2239.0473140671675 32.69305730855386
3.6 2227.544529916384 32.94788912115653
3.7 2217.7391602516304 35.148726408751244
3.8000000000000003 2205.4912617272107 33.18055522035993
3.9000000000000004 2194.2466548030225 32.82514772970293
4.0 2183.039189061867 33.41128972132046
4.1 2168.365768705333 34.820424106971586
4.199999999999999 2156.2275765720387 33.51963629080202
4.299999999999999 2144.384437221374 36.28413818352932
4.399999999999999 2133.433424178287 36.44543969186555
4.499999999999998 2118.578748748294 37.19213891903614
4.599999999999998 2108.6653020406407 37.68139955454874
4.6999999999999975 2093.9788488138474 39.816745675440586
4.799999999999997 2079.5690663882287 38.67691272245962
4.899999999999997 2066.186235425869 40.09605455549799
4.9999999999999964 2053.125756688273 41.8116751546908
5.099999999999996 2039.0982799548394 40.81592026094927
5.199999999999996 2027.5562601267302 43.0134953646604
5.299999999999995 2014.3837831238836 42.62860849901172
5.399999999999995 1999.2300332770387 41.321703703008794
5.499999999999995 1983.4974579009747 42.791655002238
5.599999999999994 1971.6315734151444 44.38460883144291
5.699999999999994 1959.9656386248373 46.684142835887926
5.799999999999994 1942.0532586765373 46.03864207073508
5.899999999999993 1928.1268426794663 46.01418550824523
5.999999999999993 1915.4594400682631 45.439997270297994
6.0999999999999925 1898.6482963238964 45.80864132058783
6.199999999999992 1885.7268308972086 47.97851526530311
6.299999999999992 1868.0185000869496 50.164159084227435
6.3999999999999915 1853.7719459431792 49.468540067472645
6.499999999999991 1838.821092541104 51.111571668951385
6.599999999999991 1822.824006000658 51.79041391898426
6.69999999999999 1809.566364070696 50.68437263793046
6.79999999999999 1793.714627579752 52.33809896970799
6.89999999999999 1777.107193499951 56.29755153892267
6.999999999999989 1761.9323669598723 55.05779419584376
7.099999999999989 1747.913967327399 53.60495728386442
7.199999999999989 1733.5075787599865 55.99695687374668
7.299999999999988 1717.5940782918394 56.41649784784032
7.399999999999988 1703.0241748304063 57.62247623897035
7.499999999999988 1686.7825431975186 57.96930336832084
7.599999999999987 1668.453352124002 61.427902386115115
7.699999999999987 1653.9966462791742 59.553831385185205
7.7999999999999865 1637.142289760967 60.78958284914793
7.899999999999986 1622.163312982751 60.344951263700025
7.999999999999986 1604.348404353442 64.03672997345829
