# Rounds: 500, repetitions: 1000
# Good arm ~ N(5.0,1.0), 13 bad arm(s) ~ N(1.0,1.0)
# Observation noise range from 0.5 to 8.0 with step size 0.1

# Observation noise | mean | standard deviation

0.5 2450.4216334268444 22.61162321873098
0.6 2449.6563906778806 23.065265003239542
0.7 2449.2927154588733 22.509462793187385
0.7999999999999999 2447.7804849363247 23.655005182454516
0.8999999999999999 2446.49520617822 23.163562795625108
0.9999999999999999 2444.4053697685995 23.31982401072139
1.0999999999999999 2440.716951114407 23.93766042491451
1.1999999999999997 2435.1622962956985 23.489011420987186
1.2999999999999996 2431.245213156605 24.63564554177931
1.3999999999999995 2426.8382600032874 25.59765812116583
1.4999999999999993 2418.082238953798 26.107153705787475
1.5999999999999992 2413.3632985948116 26.076213490957795
1.699999999999999 2404.3050079902714 25.870464159402154
1.799999999999999 2398.9081221329398 26.78847224830593
1.8999999999999988 2389.299753498621 25.64270622664523
1.9999999999999987 2379.603044223432 26.496878276996014
2.0999999999999988 2372.2139137837703 27.018720409867292
2.199999999999999 2363.9661199150037 26.107014562846217
2.299999999999999 2354.8374167680972 28.00610183863546
2.399999999999999 2345.0499471528656 28.03888500424815
2.499999999999999 2336.0962579059956 26.40367414032489
2.599999999999999 2327.005215054779 28.580849117898374
2.6999999999999993 2317.3192402559876 28.757016512827445
2.7999999999999994 2308.277954435743 29.287399354777424
2.8999999999999995 2296.0883112875244 28.78537145776465
2.9999999999999996 2288.06489693691 30.006000140759625
3.0999999999999996 2277.707861892378 30.763319887134436
3.1999999999999997 2265.133898611598 30.563985676544565
3.3 2253.7081429615823 31.328945157706436
3.4 2244.515233763182 32.59255298299479
3.5 2233.161596255439 32.21744433071521
3.6 2221.1787704702815 34.06879983117841
3.7 2211.020759357068 32.88887331607537
3.8000000000000003 2199.0596191073837 32.56615853830592
3.9000000000000004 2185.525327729772 35.01593396978187
4.0 2175.030237820691 34.314798451841966
4.1 2161.1118160761243 35.74127310776274
4.199999999999999 2149.5414360934074 35.35833111735008
4.299999999999999 2138.902153179561 36.564584311322655
4.399999999999999 2124.5540705517124 35.995893633451196
4.499999999999998 2113.703119951053 38.66702502977879
4.599999999999998 2099.3276611151637 39.361964355046496
4.6999999999999975 2088.4016045289522 41.15503396285564
4.799999999999997 2075.7731519278113 40.2803443784899
4.899999999999997 2063.180265082973 41.9913177041614
4.9999999999999964 2048.3629887136035 40.974281829411076
5.099999999999996 2035.831359423905 41.97279996518054
5.199999999999996 2022.2895467108267 43.02307826745749
5.299999999999995 2009.2847495446063 43.12513887041165
5.399999999999995 1990.649504871955 43.16045139317269
5.499999999999995 1980.3069638361421 44.92459165072307
5.599999999999994 1967.8872193934228 45.344979905487115
5.699999999999994 1952.9883692322471 45.74658846944012
5.799999999999994 1939.9891471603273 48.229699369727626
5.899999999999993 1923.9368541225335 47.625069454645796
5.999999999999993 1910.4541192454287 48.70012827326942
6.0999999999999925 1898.7077349752954 49.61846298271509
6.199999999999992 1881.0903744150564 50.397560483842426
6.299999999999992 1867.9830394913024 49.212596691070424
6.3999999999999915 1856.5793731947897 51.111247248479756
6.499999999999991 1837.2962651287014 51.69891382130774
6.599999999999991 1826.3753744532924 52.7933965852582
6.69999999999999 1813.4022946883965 52.97135237744181
6.79999999999999 1792.7057765262257 53.224156822056834
6.89999999999999 1779.2685274216383 54.558834191539106
6.999999999999989 1766.1464186460069 55.942733822752906
7.099999999999989 1751.8903754570651 54.044322672861824
7.199999999999989 1735.3916654715233 53.923085815875694
7.299999999999988 1722.815008906712 56.41165221051956
7.399999999999988 1705.8088548938695 58.54893957397302
7.499999999999988 1691.4489260999942 57.53062952305857
7.599999999999987 1679.602679489838 58.928463598709534
7.699999999999987 1664.3984482268477 58.900406606103274
7.7999999999999865 1649.474997186691 59.52894552148505
7.899999999999986 1631.4403206996647 61.23657449003834
7.999999999999986 1613.7166159896428 63.53483338693287
