# Rounds: 5000, repetitions: 1000
# Good arm ~ N(5.0,1.0), 7 bad arm(s) ~ N(4.5,1.0)
# Observation noise range from 0.5 to 8.0 with step size 0.1

# Observation noise | mean | standard deviation

0.5 24829.600614754137 478.18310866733566
0.6 24861.138893818978 377.56533418849494
0.7 24904.684838631554 184.23015085327077
0.7999999999999999 24904.69715894154 128.02896545355583
0.8999999999999999 24896.577950374904 79.85535021056921
0.9999999999999999 24871.75138106552 126.84937731592993
1.0999999999999999 24859.278028017456 85.25122905470252
1.1999999999999997 24838.86550284024 80.69752593078238
1.2999999999999996 24817.516860980933 79.23600820931203
1.3999999999999995 24797.07555188887 81.53780059761468
1.4999999999999993 24776.11307236062 83.85740474999176
1.5999999999999992 24748.328242987223 83.96349226445126
1.699999999999999 24731.670658764953 84.31628544262625
1.799999999999999 24708.792132827268 88.11100903847317
1.8999999999999988 24689.79398769166 82.92279845936942
1.9999999999999987 24660.30388641733 91.4285754400025
2.0999999999999988 24632.105863577963 85.35322474022685
2.199999999999999 24612.457137232 88.6278410225043
2.299999999999999 24584.48204427272 91.5794432419072
2.399999999999999 24555.306134307986 88.45850955193542
2.499999999999999 24530.818671507823 91.4292132947735
2.599999999999999 24510.604701867876 92.77246890274596
2.6999999999999993 24479.774290912184 99.41314362118945
2.7999999999999994 24454.05504098472 98.78341861577306
2.8999999999999995 24434.3170421383 97.64898467801787
2.9999999999999996 24403.819193033272 94.97823465199347
3.0999999999999996 24372.157285426332 94.25278645548431
3.1999999999999997 24348.961707211995 98.45248223344177
3.3 24318.327834175492 99.10983433259278
3.4 24300.16458255222 98.73431324189036
3.5 24277.884792510402 100.33808972445364
3.6 24248.472104897086 103.66584987141303
3.7 24226.222391344516 101.58066357304016
3.8000000000000003 24199.90054853697 102.94415509729802
3.9000000000000004 24173.83141725405 105.62414701261788
4.0 24153.154446425964 109.51942392832923
4.1 24123.810094143104 106.1015578750007
4.199999999999999 24096.55777197092 106.72688454176213
4.299999999999999 24078.59547423863 106.05914784076674
4.399999999999999 24058.010805656424 106.71259278991735
4.499999999999998 24034.657600261413 106.5792488756568
4.599999999999998 24013.597409042522 106.41188955481434
4.6999999999999975 23986.006977066827 109.39052376793569
4.799999999999997 23970.10282193825 108.80351951217492
4.899999999999997 23948.80977304161 110.29480019149148
4.9999999999999964 23935.292021890324 109.41252944832303
5.099999999999996 23907.814562686293 107.26165523777297
5.199999999999996 23888.330781680037 104.93776645486338
5.299999999999995 23870.25204925154 111.86362621890287
5.399999999999995 23844.604663457703 109.33946054422921
5.499999999999995 23831.377805512326 109.5640737813163
5.599999999999994 23814.616909861918 110.57742257548678
5.699999999999994 23793.374617540372 109.93457494976525
5.799999999999994 23784.267771425475 112.87075638501332
5.899999999999993 23758.99110157944 109.64342415787397
5.999999999999993 23743.411969747947 105.74630780795428
6.0999999999999925 23732.699665397344 104.1752477886929
6.199999999999992 23710.134369573647 107.58819243598856
6.299999999999992 23697.294404139622 110.57180185386026
6.3999999999999915 23680.27856420554 109.28645010382988
6.499999999999991 23662.742833504788 107.57538289415612
6.599999999999991 23647.122718841678 109.70168078114962
6.69999999999999 23634.72521846304 105.93588390746467
6.79999999999999 23623.537061240302 110.41318781352821
6.89999999999999 23604.384763158832 109.81271092062728
6.999999999999989 23590.278382402117 105.15547262240811
7.099999999999989 23587.401532270957 106.99277761669077
7.199999999999989 23570.828997329176 111.19440060731088
7.299999999999988 23556.467035636146 109.69762642497959
7.399999999999988 23543.772007714157 101.47926680666905
7.499999999999988 23534.08141363616 101.73442930365484
7.599999999999987 23520.113444068415 101.74192301181415
7.699999999999987 23515.014371367837 102.31178320737483
7.7999999999999865 23499.981733724962 98.05585314189113
7.899999999999986 23485.770233939882 103.9942924334278
7.999999999999986 23478.9134659854 102.29932622329227
