# Rounds: 5000, repetitions: 1000
# Good arm ~ N(5.0,1.0), 7 bad arm(s) ~ N(4.0,1.0)
# Observation noise range from 0.5 to 8.0 with step size 0.1

# Observation noise | mean | standard deviation

0.5 24928.986881564342 379.7017602848023
0.6 24941.239029074255 259.36628702052445
0.7 24941.17585178652 262.6939863747751
0.7999999999999999 24941.55737155294 121.50905688085487
0.8999999999999999 24937.498248144824 82.92777726692222
0.9999999999999999 24927.812090525586 75.01303444777322
1.0999999999999999 24919.737224977358 75.33091012429367
1.1999999999999997 24901.615595591855 71.21411191803583
1.2999999999999996 24889.152749114146 74.28945710557441
1.3999999999999995 24877.176287782164 76.30998373021264
1.4999999999999993 24860.065713318 74.78694843053498
1.5999999999999992 24848.542573871182 75.07749320717205
1.699999999999999 24830.033373193797 75.12440356690793
1.799999999999999 24816.401591549176 75.00936757740202
1.8999999999999988 24794.798738092813 77.60034588685402
1.9999999999999987 24775.513308363676 75.46318371134687
2.0999999999999988 24763.21958983373 72.6545669482326
2.199999999999999 24745.06442863266 76.41634097158604
2.299999999999999 24728.301673808877 77.45828251194939
2.399999999999999 24707.00180878142 77.60569619118161
2.499999999999999 24688.7176198144 79.81159172332673
2.599999999999999 24666.948641808962 78.2386376979626
2.6999999999999993 24652.70747700632 82.90287813183754
2.7999999999999994 24626.664569995828 79.08503241826887
2.8999999999999995 24612.84736589693 77.27298766067567
2.9999999999999996 24592.804136868403 79.56216081073404
3.0999999999999996 24563.53142744569 78.20725339098111
3.1999999999999997 24546.055163379137 84.34436132805618
3.3 24524.01561233302 85.16846163240763
3.4 24503.954749571876 82.64707344664751
3.5 24481.04196722939 80.96682359826312
3.6 24462.56891851054 85.10605832869861
3.7 24440.45106342721 82.48990100373067
3.8000000000000003 24421.830452632512 91.14271006437073
3.9000000000000004 24393.03634955938 87.14338851413775
4.0 24374.571185949644 86.65282761047081
4.1 24351.260294332475 87.43638066624779
4.199999999999999 24332.032224557443 87.9952763430159
4.299999999999999 24305.306687675675 92.10312223029074
4.399999999999999 24281.631307435076 90.77641259193945
4.499999999999998 24263.232073467905 85.92355826781575
4.599999999999998 24237.24990059996 91.56946209143629
4.6999999999999975 24218.314017480294 90.1057557882367
4.799999999999997 24192.97386796004 90.78253945721409
4.899999999999997 24172.1064381921 90.76059787497651
4.9999999999999964 24150.136636289684 90.30114728992328
5.099999999999996 24124.429834359184 93.25252586900554
5.199999999999996 24107.13447891961 95.0859124358033
5.299999999999995 24076.151541230956 93.4542760902528
5.399999999999995 24058.993927337306 93.91739631219266
5.499999999999995 24029.24074797241 98.22108163180772
5.599999999999994 24003.38417930969 99.07445120506988
5.699999999999994 23985.3775739099 96.22445339181071
5.799999999999994 23957.65579428633 97.97392066840335
5.899999999999993 23935.130590930847 98.36892750561647
5.999999999999993 23916.06973648865 102.78899143662231
6.0999999999999925 23897.866040171684 94.47686289845079
6.199999999999992 23871.724355844235 99.02505760116982
6.299999999999992 23839.690329199613 103.12746848478514
6.3999999999999915 23821.3715068433 101.01675317466194
6.499999999999991 23802.439668592797 100.76473546859495
6.599999999999991 23774.49598131896 101.58885265335766
6.69999999999999 23755.860150812285 98.42123801911448
6.79999999999999 23730.658349102057 101.83328857813544
6.89999999999999 23707.242846612397 103.8633243927423
6.999999999999989 23686.010748766097 104.02408224452434
7.099999999999989 23663.087602710773 104.3702192620373
7.199999999999989 23637.263220289995 102.38374006926895
7.299999999999988 23621.413587052924 107.14680546701338
7.399999999999988 23599.409190843624 104.96440803320294
7.499999999999988 23569.32782026448 105.90014389603868
7.599999999999987 23555.725251613963 105.00198770697888
7.699999999999987 23529.850927431005 107.36332799422956
7.7999999999999865 23507.91427539562 108.11119410202623
7.899999999999986 23481.66220485891 108.78512709338504
7.999999999999986 23467.435217325798 105.59539807307904
