# Rounds: 5000, repetitions: 1000
# Good arm ~ N(5.0,0.0), 16 bad arm(s) ~ N(4.9,0.0)
# Observation noise range from 0.5 to 8.0 with step size 0.1

# Observation noise | mean | standard deviation

0.5 24791.263000000126 1.8715056862068684
0.6 24742.037900000272 1.9701053029894158
0.7 24699.856400000444 2.215352528779384
0.7999999999999999 24666.243100000647 2.09158961966289
0.8999999999999999 24640.53960000079 2.193600629936388
0.9999999999999999 24621.30990000091 2.189302408295956
1.0999999999999999 24606.841800001053 1.9723800452731526
1.1999999999999997 24596.16880000105 1.8487683750146122
1.2999999999999996 24587.766000001156 1.8577554347132934
1.3999999999999995 24581.171600001187 1.6697249538124628
1.4999999999999993 24575.983700001238 1.6659470848878888
1.5999999999999992 24571.838600001232 1.5680461755880053
1.699999999999999 24568.3208000013 1.524976364696019
1.799999999999999 24565.42920000131 1.5091470719754403
1.8999999999999988 24562.863800001287 1.488941404647605
1.9999999999999987 24560.87390000131 1.5213754872942937
2.0999999999999988 24558.969600001332 1.3963759184675353
2.199999999999999 24557.378700001354 1.4151887043925686
2.299999999999999 24555.964400001376 1.4027759694237512
2.399999999999999 24554.74110000134 1.3530822671208986
2.499999999999999 24553.65280000136 1.3458467458952863
2.599999999999999 24552.652600001376 1.340025712023193
2.6999999999999993 24551.74010000136 1.2971756452508134
2.7999999999999994 24550.983000001383 1.34009957348164
2.8999999999999995 24550.272800001396 1.287002927935271
2.9999999999999996 24549.621400001404 1.2475008209525378
3.0999999999999996 24548.9237000014 1.3041814287805482
3.1999999999999997 24548.36830000142 1.2791486744362859
3.3 24547.85130000142 1.2746776506594966
3.4 24547.40160000142 1.2520803269460536
3.5 24546.916700001377 1.26222990549074
3.6 24546.5411000014 1.2099523853262821
3.7 24546.085700001386 1.2255559952435704
3.8000000000000003 24545.744200001398 1.2544081871075765
3.9000000000000004 24545.407800001383 1.2508252170891598
4.0 24545.071800001417 1.2851522774969089
4.1 24544.82120000142 1.2223930647654637
4.199999999999999 24544.524700001417 1.2043880024489042
4.299999999999999 24544.216000001445 1.2623856849630801
4.399999999999999 24543.939700001407 1.2909455644715209
4.499999999999998 24543.762200001413 1.2074473442242013
4.599999999999998 24543.41580000142 1.2319366980532442
4.6999999999999975 24543.26230000143 1.2219664119348035
4.799999999999997 24543.07800000146 1.2087750564605648
4.899999999999997 24542.873500001395 1.241825221140967
4.9999999999999964 24542.69080000144 1.25105575434713
5.099999999999996 24542.456100001436 1.2602424373848302
5.199999999999996 24542.261000001403 1.1971767756752072
5.299999999999995 24542.17230000144 1.2863270763413366
5.399999999999995 24541.949400001442 1.2593274179221057
5.499999999999995 24541.85230000144 1.2344791001206012
5.599999999999994 24541.648100001403 1.214508716068747
5.699999999999994 24541.55490000142 1.258618333766904
5.799999999999994 24541.374700001437 1.3338399600486404
5.899999999999993 24541.190300001454 1.267376089461362
5.999999999999993 24541.21860000143 1.2916742865167052
6.0999999999999925 24541.03330000146 1.2641911600997418
6.199999999999992 24540.94980000145 1.3089818155263009
6.299999999999992 24540.810900001434 1.329525790955046
6.3999999999999915 24540.663800001475 1.2825968246492552
6.499999999999991 24540.56740000143 1.2569236639850132
6.599999999999991 24540.41450000144 1.2528644856515474
6.69999999999999 24540.40810000141 1.2778878618155638
6.79999999999999 24540.26210000143 1.2972804347998512
6.89999999999999 24540.214400001445 1.3158358803630823
6.999999999999989 24540.100600001457 1.3605111651937734
7.099999999999989 24539.978300001454 1.374331800506449
7.199999999999989 24539.929500001424 1.3430649923072353
7.299999999999988 24539.925200001453 1.3734158988515501
7.399999999999988 24539.732200001425 1.3591064455436304
7.499999999999988 24539.70170000148 1.3254221417495997
7.599999999999987 24539.592500001447 1.3596405305656383
7.699999999999987 24539.46910000145 1.4311265888448157
7.7999999999999865 24539.378100001464 1.40078999232184
7.899999999999986 24539.36970000146 1.374438427496362
7.999999999999986 24539.31830000145 1.382362483585294
