# Rounds: 5000, repetitions: 1000
# Good arm ~ N(5.0,0.0), 16 bad arm(s) ~ N(4.0,0.0)
# Observation noise range from 0.5 to 8.0 with step size 0.1

# Observation noise | mean | standard deviation

0.5 24949.222000000023 2.628997456755644
0.6 24930.962000000014 2.644910499724227
0.7 24909.92600000001 2.8942876327174
0.7999999999999999 24887.487000000037 3.2674925413086235
0.8999999999999999 24863.10900000001 3.602512608874107
0.9999999999999999 24836.879999999976 4.065972470655927
1.0999999999999999 24809.064999999988 4.334693133840564
1.1999999999999997 24780.086000000018 4.651692406236938
1.2999999999999996 24749.728999999978 5.076152709121919
1.3999999999999995 24717.666000000005 5.497514589945734
1.4999999999999993 24684.905 5.9695569861263555
1.5999999999999992 24650.386 6.305613750045631
1.699999999999999 24615.533000000032 6.247394732281682
1.799999999999999 24579.64199999997 6.990329083863023
1.8999999999999988 24542.982000000018 7.240587137940044
1.9999999999999987 24505.040000000015 7.921941501750545
2.0999999999999988 24465.690999999995 7.984313888385711
2.199999999999999 24426.626999999986 8.304145340119584
2.299999999999999 24386.860999999997 8.601724749645737
2.399999999999999 24345.688999999988 9.332919285110231
2.499999999999999 24305.095000000005 9.343943722234412
2.599999999999999 24263.280999999963 9.94429122300467
2.6999999999999993 24221.965000000004 10.362584530808826
2.7999999999999994 24179.316000000017 10.432688291374593
2.8999999999999995 24135.297999999995 11.570266508039834
2.9999999999999996 24092.739000000012 11.29355672157465
3.0999999999999996 24049.128999999983 12.128126419626884
3.1999999999999997 24005.05700000003 12.501121110885515
3.3 23962.330999999966 12.33018541922518
3.4 23916.861999999986 12.991602585429437
3.5 23872.29299999999 13.180777059182995
3.6 23828.402000000013 13.66246899572181
3.7 23782.66700000003 13.825239536740211
3.8000000000000003 23738.039 14.074216232620685
3.9000000000000004 23693.072999999986 15.259965187952968
4.0 23648.846000000005 15.682098463286417
4.1 23603.098999999984 16.268862126002382
4.199999999999999 23558.906999999974 15.917214225759162
4.299999999999999 23514.64500000003 16.364497296641044
4.399999999999999 23470.475999999995 17.02931065608404
4.499999999999998 23425.085999999996 17.05272410494579
4.599999999999998 23381.918999999973 17.568354677831614
4.6999999999999975 23337.541 18.46546214672931
4.799999999999997 23293.382999999994 18.033122428035146
4.899999999999997 23249.932999999994 19.684155480410592
4.9999999999999964 23207.117000000002 19.36140943152584
5.099999999999996 23163.65099999999 19.923155651932543
5.199999999999996 23121.887999999966 19.23817984019185
5.299999999999995 23079.165000000005 20.836456822908566
5.399999999999995 23036.203999999976 21.089503340552007
5.499999999999995 22995.22200000005 20.819369879085198
5.599999999999994 22953.33999999998 22.00942559029689
5.699999999999994 22911.289000000022 22.509423652176256
5.799999999999994 22872.955000000005 22.20179936164844
5.899999999999993 22833.01 22.68833754730966
5.999999999999993 22792.71300000002 22.929072667104776
6.0999999999999925 22753.440999999977 23.208687213243184
6.199999999999992 22714.97199999999 22.82012212881373
6.299999999999992 22675.828999999987 23.89901508267495
6.3999999999999915 22638.606999999996 24.48775614876138
6.499999999999991 22599.593000000023 25.159657377622597
6.599999999999991 22563.236999999994 25.14719094078327
6.69999999999999 22528.336999999992 25.845801137446703
6.79999999999999 22491.996 25.107974717097168
6.89999999999999 22456.980000000007 26.652954432482364
6.999999999999989 22423.050000000007 26.41536051753352
7.099999999999989 22390.20500000002 26.581564185625954
7.199999999999989 22353.16199999998 27.454972801507726
7.299999999999988 22321.776 27.063226752223095
7.399999999999988 22289.238 27.996305991132978
7.499999999999988 22255.00899999997 28.559491654501887
7.599999999999987 22224.746999999996 29.112721300859903
7.699999999999987 22194.247000000007 29.380387985834968
7.7999999999999865 22163.67100000001 29.96839775269706
7.899999999999986 22134.02799999997 29.072743944121274
7.999999999999986 22104.877999999986 29.035877775576097
