# Rounds: 500, repetitions: 1000
# Good arm ~ N(5.0,0.0), 13 bad arm(s) ~ N(4.0,0.0)
# Observation noise range from 0.5 to 8.0 with step size 0.1

# Observation noise | mean | standard deviation

0.5 2472.0010000000007 3.775878209934264
0.6 2463.0939999999982 3.9327637394878363
0.7 2453.2109999999934 3.533406849481676
0.7999999999999999 2442.765 3.728226746681925
0.8999999999999999 2431.819 3.893507210523496
0.9999999999999999 2420.4509999999996 3.844005121663511
1.0999999999999999 2408.6730000000057 4.219938255339626
1.1999999999999997 2396.9610000000002 4.690786979013475
1.2999999999999996 2385.3399999999997 5.062610989403589
1.3999999999999995 2373.264 5.380264979650281
1.4999999999999993 2361.294000000002 6.021613058294563
1.5999999999999992 2349.0699999999993 6.407195342125273
1.699999999999999 2337.599000000001 6.41446368329765
1.799999999999999 2326.345999999997 6.664735756404969
1.8999999999999988 2314.6810000000005 7.09094637693161
1.9999999999999987 2304.1829999999977 7.756524651844704
2.0999999999999988 2293.3440000000032 7.7172028105537605
2.199999999999999 2282.5520000000033 8.663506931511742
2.299999999999999 2273.3209999999976 8.419313739482803
2.399999999999999 2262.665999999998 9.180344368416826
2.499999999999999 2253.6569999999997 9.254241837773204
2.599999999999999 2244.923999999999 10.0893021571375
2.6999999999999993 2236.738000000001 10.138251335419785
2.7999999999999994 2228.2929999999983 10.66812823132341
2.8999999999999995 2220.232000000003 11.218825163003403
2.9999999999999996 2213.679000000001 10.246997607102283
3.0999999999999996 2205.998999999999 11.349705494629111
3.1999999999999997 2199.292000000001 11.61023399994736
3.3 2192.842999999997 11.313370114309174
3.4 2186.8090000000016 11.905976283836274
3.5 2180.603000000004 11.725650595249785
3.6 2174.9500000000016 12.110415441353036
3.7 2170.564 12.333451180347613
3.8000000000000003 2164.759 12.545210293227537
3.9000000000000004 2160.1600000000044 12.452448091177237
4.0 2156.4880000000007 12.737036079405906
4.1 2151.8440000000037 13.045376416410777
4.199999999999999 2149.0979999999972 12.158710056179094
4.299999999999999 2144.410999999997 13.178153996017139
4.399999999999999 2140.5629999999965 13.613866767688357
4.499999999999998 2137.680999999997 12.891370230756106
4.599999999999998 2134.4360000000042 12.85944280555222
4.6999999999999975 2130.326000000005 13.421544689858246
4.799999999999997 2128.164000000002 13.399427176138856
4.899999999999997 2125.376999999997 12.844759976693163
4.9999999999999964 2122.9639999999995 13.778408781443108
5.099999999999996 2119.937000000002 13.442906781747132
5.199999999999996 2116.6910000000003 13.373719578912048
5.299999999999995 2114.3940000000052 13.39948918094678
5.399999999999995 2112.426999999997 13.476954377725646
5.499999999999995 2110.6189999999974 13.174422355625477
5.599999999999994 2108.3640000000023 14.110301364769077
5.699999999999994 2105.939999999998 14.004661028762209
5.799999999999994 2104.463000000001 13.227758865529873
5.899999999999993 2102.682 13.08518620800246
5.999999999999993 2100.6889999999985 13.612552316908857
6.0999999999999925 2098.0209999999993 13.564164019413253
6.199999999999992 2097.051000000001 13.379589396256222
6.299999999999992 2095.064999999996 13.605362210572745
6.3999999999999915 2093.8910000000005 13.717700036605773
6.499999999999991 2092.064000000005 13.295438039894483
6.599999999999991 2090.128000000002 13.67371882797753
6.69999999999999 2090.1739999999936 13.374700243616974
6.79999999999999 2088.4979999999996 13.621730710432736
6.89999999999999 2086.959 13.651801737891269
6.999999999999989 2085.3159999999984 13.463558645893423
7.099999999999989 2083.9690000000005 13.056742224518247
7.199999999999989 2082.9229999999975 13.305341149444585
7.299999999999988 2081.7880000000036 13.067969537301046
7.399999999999988 2080.864000000001 13.380977339288588
7.499999999999988 2079.8769999999995 12.741908303987566
7.599999999999987 2079.3049999999967 12.76153720489156
7.699999999999987 2077.8160000000003 12.910492818820831
7.7999999999999865 2076.8600000000006 12.940241491172012
7.899999999999986 2075.875 12.731278822665871
7.999999999999986 2074.219 12.527169232071875
