# Rounds: 500, repetitions: 1000
# Good arm ~ N(5.0,0.0), 13 bad arm(s) ~ N(0.5,0.0)
# Observation noise range from 0.5 to 8.0 with step size 0.1

# Observation noise | mean | standard deviation

0.5 2446.0860000000016 1.864693294105256
0.6 2445.973500000001 2.1465449926347957
0.7 2445.8339999999957 2.4581469619382927
0.7999999999999999 2445.6045000000036 2.859546599857528
0.8999999999999999 2445.4154999999964 3.4315281049606723
0.9999999999999999 2445.0870000000014 4.10521421898828
1.0999999999999999 2444.465999999998 4.865132425074731
1.1999999999999997 2443.142999999997 5.179515264807923
1.2999999999999996 2440.2404999999962 6.878460799697355
1.3999999999999995 2435.0474999999974 8.104021774336442
1.4999999999999993 2428.679999999997 9.110136914151953
1.5999999999999992 2419.455 9.209168463210146
1.699999999999999 2410.5405000000014 9.172799463631604
1.799999999999999 2401.1445000000026 8.707823835261365
1.8999999999999988 2392.7430000000004 8.472232865645873
1.9999999999999987 2385.853500000003 8.12337842446278
2.0999999999999988 2378.4059999999995 8.418820614583751
2.199999999999999 2370.549000000003 9.12427264779782
2.299999999999999 2362.4714999999987 9.706577945156843
2.399999999999999 2353.4219999999978 10.06748579687457
2.499999999999999 2344.534500000004 10.830436653621467
2.599999999999999 2334.3465000000024 11.157112929379124
2.6999999999999993 2325.3015000000005 11.074542574898668
2.7999999999999994 2315.370000000001 11.96481327713711
2.8999999999999995 2305.7084999999993 11.560035128067835
2.9999999999999996 2295.790499999995 11.882805258473727
3.0999999999999996 2285.472000000004 12.661932733218125
3.1999999999999997 2274.478499999998 13.162809247926424
3.3 2264.416499999997 13.88025357078139
3.4 2252.774999999998 14.215641366447743
3.5 2242.65 14.315461307007606
3.6 2231.3414999999986 15.10774210865478
3.7 2219.1375000000016 16.07333804615413
3.8000000000000003 2207.6535000000035 15.448085029578298
3.9000000000000004 2196.4215000000004 16.35171141551298
4.0 2184.6404999999954 17.86918625924434
4.1 2172.166500000002 17.553950236881686
4.199999999999999 2159.1929999999998 18.03728345939581
4.299999999999999 2147.9610000000043 18.871383311991373
4.399999999999999 2136.7784999999967 19.74280796179248
4.499999999999998 2122.567499999999 20.34538346599486
4.599999999999998 2109.4094999999984 20.80153272029523
4.6999999999999975 2096.1615000000006 21.75915045166918
4.799999999999997 2083.831500000002 21.2644311888135
4.899999999999997 2071.4069999999965 21.8248637034845
4.9999999999999964 2057.8440000000023 22.19229961410397
5.099999999999996 2043.8805000000002 23.45978113881457
5.199999999999996 2030.8439999999996 23.08850890038684
5.299999999999995 2016.8849999999982 23.726951832109492
5.399999999999995 2001.8910000000005 25.073458024319233
5.499999999999995 1988.4360000000015 24.629718370842674
5.599999999999994 1974.4005000000018 27.162080707824522
5.699999999999994 1959.8924999999992 26.858780460732724
5.799999999999994 1946.9774999999988 26.7878205735569
5.899999999999993 1931.4030000000007 26.860315850108066
5.999999999999993 1916.7240000000006 27.96982543984026
6.0999999999999925 1902.715500000001 29.28046542330581
6.199999999999992 1888.211999999998 28.974326007132014
6.299999999999992 1871.0535000000007 30.579494653169842
6.3999999999999915 1857.333000000002 30.390206904127442
6.499999999999991 1842.8430000000005 32.198712833094895
6.599999999999991 1826.8139999999999 31.786259142438897
6.69999999999999 1812.1799999999998 33.45279045444783
6.79999999999999 1797.9060000000004 34.42517620516642
6.89999999999999 1779.5639999999994 34.05998365364382
6.999999999999989 1767.3689999999997 35.5567521241975
7.099999999999989 1752.1905000000002 36.32352348145886
7.199999999999989 1733.6954999999984 35.54561182861068
7.299999999999988 1717.6350000000004 38.34404178670453
7.399999999999988 1702.6679999999994 37.850626757637
7.499999999999988 1690.2794999999996 36.557229938971204
7.599999999999987 1671.1770000000008 40.856926701104925
7.699999999999987 1658.1809999999994 40.381678010193156
7.7999999999999865 1639.357500000001 39.30900840636779
7.899999999999986 1624.2915000000019 40.855206836775174
7.999999999999986 1608.5819999999976 41.40025068470911
