# Rounds: 500, repetitions: 1000
# Good arm ~ N(5.0,0.0), 13 bad arm(s) ~ N(1.0,0.0)
# Observation noise range from 0.5 to 8.0 with step size 0.1

# Observation noise | mean | standard deviation

0.5 2452.2720000000004 2.463348145123669
0.6 2452.26 2.5208638905650784
0.7 2451.875999999999 3.3911832926169185
0.7999999999999999 2451.7360000000026 3.447635449143401
0.8999999999999999 2451.3000000000015 4.681443785405943
0.9999999999999999 2450.9159999999983 4.495013809672781
1.0999999999999999 2449.2239999999974 5.1513454902929094
1.1999999999999997 2445.3159999999984 7.45142051341005
1.2999999999999996 2440.272 8.303430794735592
1.3999999999999995 2432.1399999999985 8.761344711924094
1.4999999999999993 2423.580000000003 8.821645051883525
1.5999999999999992 2414.432000000002 8.029810324898948
1.699999999999999 2406.8519999999994 8.006634886280395
1.799999999999999 2399.2279999999982 7.960614761900493
1.8999999999999988 2392.131999999999 7.552987728284982
1.9999999999999987 2383.5920000000015 8.444219374272551
2.0999999999999988 2376.656000000002 8.595088105397135
2.199999999999999 2367.539999999999 9.402382932257426
2.299999999999999 2357.780000000001 9.860671013315136
2.399999999999999 2348.972000000001 9.813435663391315
2.499999999999999 2340.000000000002 10.240354723585869
2.599999999999999 2330.1640000000007 10.813048877445617
2.6999999999999993 2320.696000000002 11.131194342364479
2.7999999999999994 2310.496000000003 11.511668102516712
2.8999999999999995 2300.392000000003 12.02526269746084
2.9999999999999996 2289.9919999999997 12.740260996158966
3.0999999999999996 2280.151999999999 13.593295173491702
3.1999999999999997 2269.827999999997 13.234559666629243
3.3 2258.2400000000016 13.018443834801602
3.4 2246.8959999999984 14.295227788934978
3.5 2235.5520000000006 15.232311686652176
3.6 2224.851999999997 15.3416251245251
3.7 2213.383999999997 15.397455167189976
3.8000000000000003 2202.3280000000004 15.974843085664833
3.9000000000000004 2190.5519999999983 16.098523486905858
4.0 2177.611999999997 17.226090508127328
4.1 2166.2399999999984 16.984665992561627
4.199999999999999 2153.184 18.23256895148264
4.299999999999999 2142.2240000000024 18.905534725133933
4.399999999999999 2128.5759999999996 19.187401605751084
4.499999999999998 2116.56 19.95787355197733
4.599999999999998 2104.156000000001 20.505905397132786
4.6999999999999975 2090.4440000000054 20.490356725023535
4.799999999999997 2077.8720000000017 21.137417212289836
4.899999999999997 2063.756000000002 21.1653593505151
4.9999999999999964 2051.7960000000044 21.644280049446284
5.099999999999996 2039.0240000000003 23.482564912182255
5.199999999999996 2024.3440000000005 24.11155389084309
5.299999999999995 2011.032000000001 24.612125725599793
5.399999999999995 1997.6280000000008 25.078328065055253
5.499999999999995 1984.3679999999995 25.09003957920523
5.599999999999994 1971.7840000000008 24.728866954651615
5.699999999999994 1956.2439999999972 27.323232294569813
5.799999999999994 1942.7919999999988 26.732440205850267
5.899999999999993 1927.3039999999996 27.046017656414268
5.999999999999993 1915.1759999999995 28.0380305149123
6.0999999999999925 1899.1200000000001 28.831942024096872
6.199999999999992 1885.5039999999997 30.24044425051439
6.299999999999992 1870.1879999999978 31.087796755432926
6.3999999999999915 1857.3200000000004 30.927368172899907
6.499999999999991 1842.7759999999969 30.29408449772916
6.599999999999991 1828.328000000001 33.55906176618507
6.69999999999999 1811.3040000000005 32.951378990527466
6.79999999999999 1796.3679999999983 34.591055449597306
6.89999999999999 1783.9159999999997 35.34779215750839
6.999999999999989 1767.9600000000016 34.89378133673645
7.099999999999989 1754.0159999999994 35.89406814681402
7.199999999999989 1738.0440000000012 36.344889806065105
7.299999999999988 1724.8199999999983 37.00000811622346
7.399999999999988 1709.5519999999997 37.209351402998514
7.499999999999988 1695.8999999999999 38.600414401816856
7.599999999999987 1677.4159999999995 40.37168335376686
7.699999999999987 1668.7520000000006 39.832714458609814
7.7999999999999865 1652.5840000000007 41.355062388844
7.899999999999986 1636.6719999999982 40.3574173744695
7.999999999999986 1622.1120000000003 41.46172368016713
