# Rounds: 1000, repetitions: 1000
# Good arm ~ N(5.0,0.0), 4 bad arm(s) ~ N(1.6,0.0)
# Observation noise range from 0.5 to 4.0 with step size 0.1

# Observation noise | mean | standard deviation

0.5 4989.475599999991 3.772123215584629
0.6 4989.274999999995 4.2054370403918355
0.7 4989.179800000001 4.446468603627172
0.7999999999999999 4989.196799999997 4.0508763693006
0.8999999999999999 4987.986399999998 5.436323081702144
0.9999999999999999 4986.915399999992 5.332365043482647
1.0999999999999999 4984.429999999997 5.461293411429669
1.1999999999999997 4981.767799999999 4.942557236090727
1.2999999999999996 4978.663600000004 4.519892085488911
1.3999999999999995 4976.273399999993 4.339534998591845
1.4999999999999993 4974.117799999995 4.202321104183002
1.5999999999999992 4971.584800000006 4.775019347580573
1.699999999999999 4968.405800000003 4.760961364379344
1.799999999999999 4965.610999999995 4.719393146546728
1.8999999999999988 4962.289200000002 4.735769300849879
1.9999999999999987 4958.97760000001 4.828383946159564
2.0999999999999988 4955.516399999993 4.828839273441164
2.199999999999999 4952.102800000002 4.738798198738571
2.299999999999999 4948.947599999997 5.015409112781178
2.399999999999999 4945.146400000005 5.519970753284603
2.499999999999999 4941.2602 5.416071435070787
2.599999999999999 4937.448799999998 5.75538904532634
2.6999999999999993 4933.515000000002 5.972262797543571
2.7999999999999994 4929.445200000005 6.118067318010467
2.8999999999999995 4925.56919999999 6.284366684449968
2.9999999999999996 4921.142399999997 6.672109057807662
3.0999999999999996 4916.8346000000065 6.674827050655015
3.1999999999999997 4912.533599999993 6.941124566685892
3.3 4907.6681999999955 7.362047847474771
3.4 4903.771800000002 7.159325436149741
3.5 4899.195399999997 7.524482485638255
3.6 4894.2552000000005 8.10634478577029
3.7 4889.332000000006 7.922094140792268
3.8000000000000003 4884.976600000002 8.22227086504563
3.9000000000000004 4879.876599999996 8.692261377101321
4.0 4875.364800000004 8.671080012812
