# Rounds: 1000, repetitions: 1000
# Good arm ~ N(5.0,0.0), 4 bad arm(s) ~ N(3.5,0.0)
# Observation noise range from 0.5 to 4.0 with step size 0.1

# Observation noise | mean | standard deviation

0.5 4992.452499999996 6.121107882704913
0.6 4990.340499999998 5.288835555349724
0.7 4987.957000000007 5.247254966616823
0.7999999999999999 4985.3859999999995 4.3330450354547745
0.8999999999999999 4981.9585 4.2081749591106945
0.9999999999999999 4978.856499999997 3.7939493673218236
1.0999999999999999 4974.983499999999 4.1749140898535355
1.1999999999999997 4971.6115 3.6791104364511207
1.2999999999999996 4967.384500000002 3.7014335547677204
1.3999999999999995 4963.076500000002 3.6150333630847844
1.4999999999999993 4958.616999999993 3.6254592750374175
1.5999999999999992 4954.0434999999925 4.026980795127276
1.699999999999999 4949.393499999996 4.044225947386422
1.799999999999999 4944.524500000002 3.787875096640294
1.8999999999999988 4939.622499999998 4.217289328381381
1.9999999999999987 4934.357499999995 4.933790230242458
2.0999999999999988 4929.271000000006 4.885122662065261
2.199999999999999 4924.133500000005 4.817638154468153
2.299999999999999 4918.521999999994 4.959951322051201
2.399999999999999 4913.3185 5.1884224459345205
2.499999999999999 4907.725000000004 5.489855509347569
2.599999999999999 4902.131500000009 5.685796869044451
2.6999999999999993 4896.541000000012 6.103529476628459
2.7999999999999994 4890.674500000004 6.169510727165719
2.8999999999999995 4884.770499999992 6.424823585757662
2.9999999999999996 4878.992500000007 7.171793944221909
3.0999999999999996 4872.953500000002 7.089523897914356
3.1999999999999997 4867.005999999999 7.328210331770432
3.3 4861.40049999999 7.626074137900645
3.4 4854.686500000004 7.936589771886092
3.5 4848.599500000002 8.103734958046822
3.6 4842.8845 8.108091692926306
3.7 4836.533499999996 8.898359880256468
3.8000000000000003 4829.993500000003 8.955691607138021
3.9000000000000004 4823.777499999995 9.681269065609152
4.0 4817.560000000011 9.476191122924769
