# Rounds: 1000, repetitions: 1000
# Good arm ~ N(5.0,0.0), 4 bad arm(s) ~ N(4.3,0.0)
# Observation noise range from 0.5 to 4.0 with step size 0.1

# Observation noise | mean | standard deviation

0.5 4989.622399999998 3.3570803130441162
0.6 4985.5358 2.7979290138899318
0.7 4980.8772999999965 2.68449645766784
0.7999999999999999 4975.7735999999995 2.633400432489815
0.8999999999999999 4970.353499999997 2.5103405266137133
0.9999999999999999 4964.729700000006 2.3591679854522742
1.0999999999999999 4958.653000000004 2.4897328711669457
1.1999999999999997 4952.479000000011 2.791851255606696
1.2999999999999996 4945.740100000002 3.1052736940105254
1.3999999999999995 4939.346299999996 3.1134739488277354
1.4999999999999993 4932.7530000000015 3.199757717304238
1.5999999999999992 4926.247900000015 3.3910256036549615
1.699999999999999 4919.063100000009 3.8487870234074366
1.799999999999999 4912.371100000005 4.046913923263071
1.8999999999999988 4904.9350000000095 4.240648311060039
1.9999999999999987 4897.923800000001 4.476593956732187
2.0999999999999988 4890.829300000003 4.649967064797544
2.199999999999999 4883.865700000008 4.8698571867167555
2.299999999999999 4876.715900000013 5.280837474722354
2.399999999999999 4869.547200000013 5.278336195525161
2.499999999999999 4862.435200000007 5.580130717000893
2.599999999999999 4855.550700000001 6.10502996723999
2.6999999999999993 4848.72990000001 6.222010077088898
2.7999999999999994 4841.005400000002 6.599615577119867
2.8999999999999995 4834.859400000017 6.67050577447336
2.9999999999999996 4827.522000000016 7.055777774278144
3.0999999999999996 4821.034400000011 7.455001924459148
3.1999999999999997 4813.750900000015 7.664521124902209
3.3 4807.093900000019 7.944339199412035
3.4 4801.0221000000165 8.17490248385976
3.5 4794.307000000021 8.888598212214104
3.6 4787.906200000008 8.538934064328691
3.7 4781.786800000015 8.692659437024096
3.8000000000000003 4774.943600000012 9.32126198349574
3.9000000000000004 4768.601600000008 9.639045006048217
4.0 4762.35270000002 9.547001516075328
