# Rounds: 1000, repetitions: 1000
# Good arm ~ N(5.0,0.0), 4 bad arm(s) ~ N(4.1,0.0)
# Observation noise range from 0.5 to 4.0 with step size 0.1

# Observation noise | mean | standard deviation

0.5 4990.680100000006 4.940271274967605
0.6 4987.710099999999 3.9865122940071758
0.7 4983.637600000002 3.79006211173523
0.7999999999999999 4979.478699999999 3.291457124132097
0.8999999999999999 4974.885999999996 2.9297726136284905
0.9999999999999999 4970.041299999996 2.8093979830253426
1.0999999999999999 4964.857300000001 3.119692162568132
1.1999999999999997 4959.296199999995 3.026702246090027
1.2999999999999996 4953.976300000005 3.1823946873299827
1.3999999999999995 4948.031800000004 3.4106981135276877
1.4999999999999993 4942.234899999993 3.616950970682886
1.5999999999999992 4936.285000000006 3.5202311042070775
1.699999999999999 4929.9525999999905 3.7939857099845953
1.799999999999999 4923.499599999998 3.870770298364737
1.8999999999999988 4916.846800000003 4.465842979048082
1.9999999999999987 4910.673699999995 4.487256821687759
2.0999999999999988 4904.200899999988 4.67688383781676
2.199999999999999 4897.284399999994 4.706362341180896
2.299999999999999 4890.721600000006 5.107659113686132
2.399999999999999 4884.132699999998 5.423730963789353
2.499999999999999 4877.140599999997 5.646738642552641
2.599999999999999 4870.876599999993 6.020863994747195
2.6999999999999993 4863.548799999993 6.105277468958462
2.7999999999999994 4856.630500000004 6.744125070976368
2.8999999999999995 4849.914699999993 6.4141215193402275
2.9999999999999996 4842.911799999998 6.9697645855781145
3.0999999999999996 4836.1267 7.336169060653186
3.1999999999999997 4829.402799999994 7.6456843152624465
3.3 4822.398999999997 8.094938358445207
3.4 4816.439199999997 8.023000180225116
3.5 4808.909799999996 8.596312031362169
3.6 4802.653900000003 8.700967280804006
3.7 4795.842700000003 9.388177916645752
3.8000000000000003 4788.079299999996 9.133268752648684
3.9000000000000004 4781.457099999994 10.30840010393006
4.0 4775.078799999988 9.904666222189098
