# Rounds: 1000, repetitions: 1000
# Good arm ~ N(5.0,0.0), 4 bad arm(s) ~ N(3.7,0.0)
# Observation noise range from 0.5 to 4.0 with step size 0.1

# Observation noise | mean | standard deviation

0.5 4992.2769 4.649280826343136
0.6 4989.745800000002 5.2978551914553185
0.7 4987.096399999996 4.627833605898508
0.7999999999999999 4983.755400000007 4.763122733898209
0.8999999999999999 4980.381899999998 3.6932590692439295
0.9999999999999999 4976.723699999995 3.77524844358764
1.0999999999999999 4972.527300000005 3.6747828151795434
1.1999999999999997 4968.457 3.4490298355924858
1.2999999999999996 4963.936899999993 3.454550956681993
1.3999999999999995 4959.239999999999 3.505005715411233
1.4999999999999993 4954.359799999998 3.774998619148783
1.5999999999999992 4949.675899999993 4.047249611701782
1.699999999999999 4944.352399999998 4.19908639665434
1.799999999999999 4939.314900000004 4.103396867944518
1.8999999999999988 4933.802899999994 4.633075326063466
1.9999999999999987 4928.2076999999945 4.559324308288378
2.0999999999999988 4922.932299999995 4.753403154746361
2.199999999999999 4917.170699999996 4.898858062887933
2.299999999999999 4911.5585999999985 5.139316940860911
2.399999999999999 4905.604599999996 5.305990234854748
2.499999999999999 4899.471199999995 5.683265792664664
2.599999999999999 4893.673200000003 5.86238597580637
2.6999999999999993 4887.795899999995 6.4458158313540395
2.7999999999999994 4881.6299999999965 6.274745606989499
2.8999999999999995 4874.912900000002 6.461040832454211
2.9999999999999996 4869.156499999994 6.899576937168971
3.0999999999999996 4862.738400000003 7.119843932111171
3.1999999999999997 4856.045999999984 7.4770549249254925
3.3 4850.446899999998 7.604549925509847
3.4 4843.555599999997 7.961920674110141
3.5 4837.740700000001 8.1288136355266
3.6 4830.965099999992 8.723174064281759
3.7 4824.2765999999965 8.887324511740225
3.8000000000000003 4818.251099999997 9.265032088968237
3.9000000000000004 4811.491099999996 9.40770406027361
4.0 4804.7466999999915 9.623171750755935
