# Rounds: 1000, repetitions: 1000
# Good arm ~ N(5.0,0.0), 4 bad arm(s) ~ N(2.0,0.0)
# Observation noise range from 0.5 to 4.0 with step size 0.1

# Observation noise | mean | standard deviation

0.5 4990.716999999997 4.508129793410367
0.6 4990.2730000000065 4.888595848438447
0.7 4990.281999999988 4.810989671743393
0.7999999999999999 4989.702999999997 5.258368705353549
0.8999999999999999 4988.499999999998 5.172693375482126
0.9999999999999999 4986.034 5.364477758516761
1.0999999999999999 4982.871999999995 4.470749780920793
1.1999999999999997 4980.145000000005 4.255124097024823
1.2999999999999996 4978.023999999996 4.332920285234692
1.3999999999999995 4975.383999999987 4.989733604256019
1.4999999999999993 4972.737999999999 4.573212248548064
1.5999999999999992 4969.467999999996 4.716908439351497
1.699999999999999 4966.639000000005 4.305486757175828
1.799999999999999 4963.281999999996 4.627730749718659
1.8999999999999988 4959.951999999999 4.940861069500779
1.9999999999999987 4956.165999999999 4.855308231000186
2.0999999999999988 4952.842000000001 5.213464895462181
2.199999999999999 4949.401000000002 5.096289941827431
2.299999999999999 4945.459000000004 5.239825834393245
2.399999999999999 4941.765999999991 5.205606817878409
2.499999999999999 4937.8 5.445884469731014
2.599999999999999 4933.359999999998 5.760693151486717
2.6999999999999993 4929.591999999992 5.833658163414053
2.7999999999999994 4925.298999999998 6.2004874844680415
2.8999999999999995 4921.012000000001 6.2428221846236545
2.9999999999999996 4916.913999999995 6.398870958969965
3.0999999999999996 4911.850000000001 6.838879313913243
3.1999999999999997 4907.377000000004 6.864400264479789
3.3 4903.044999999992 7.109678088529909
3.4 4897.744 7.467947123154712
3.5 4893.306999999998 7.6627324413989815
3.6 4888.347999999998 7.791508429283961
3.7 4883.824000000002 8.247487195809724
3.8000000000000003 4878.2019999999975 8.34570828910561
3.9000000000000004 4873.603000000005 8.88393580094519
4.0 4868.3109999999915 9.201464337046927
