# Rounds: 1000, repetitions: 1000
# Good arm ~ N(5.0,0.0), 4 bad arm(s) ~ N(3.8,0.0)
# Observation noise range from 0.5 to 4.0 with step size 0.1

# Observation noise | mean | standard deviation

0.5 4991.755600000007 5.365707731460872
0.6 4989.229599999994 5.2299671506039624
0.7 4986.323199999999 4.530243356031217
0.7999999999999999 4983.131199999997 3.8594821106156605
0.8999999999999999 4979.275600000008 4.028015584571336
0.9999999999999999 4975.28440000001 3.756715260643205
1.0999999999999999 4971.043599999992 3.830421800686075
1.1999999999999997 4966.7224000000015 3.2636896160495383
1.2999999999999996 4961.900800000008 3.36531197434715
1.3999999999999995 4957.099599999996 3.4489034162722323
1.4999999999999993 4951.998400000003 3.563534231099166
1.5999999999999992 4947.091600000003 3.7278500917157804
1.699999999999999 4941.552400000001 3.7432694674983855
1.799999999999999 4935.961599999997 4.1065056713497325
1.8999999999999988 4930.489600000003 4.572622958512928
1.9999999999999987 4924.710400000006 4.404671721362673
2.0999999999999988 4918.838800000003 4.542555378789349
2.199999999999999 4913.083599999988 5.273710559280012
2.299999999999999 4907.138800000005 5.174490304359243
2.399999999999999 4901.2011999999995 5.257752611384462
2.499999999999999 4894.835199999993 5.471575559114325
2.599999999999999 4888.670800000011 6.216690003095898
2.6999999999999993 4882.39 6.354611009422859
2.7999999999999994 4876.476400000008 6.264372706457014
2.8999999999999995 4869.903999999997 6.564726928032657
2.9999999999999996 4863.626799999992 6.9840775410283396
3.0999999999999996 4857.2416 7.246951617593863
3.1999999999999997 4850.655999999999 7.3636653622747215
3.3 4843.691199999998 7.964988612898415
3.4 4837.441600000006 8.011395127684597
3.5 4831.028800000003 8.002470249247219
3.6 4824.829600000004 9.025596114674165
3.7 4817.8684000000085 9.108890894797893
3.8000000000000003 4810.604799999999 8.841016940405561
3.9000000000000004 4804.374400000004 9.3845689711767
4.0 4797.633999999999 10.127189341765174
