# Rounds: 1000, repetitions: 1000
# Good arm ~ N(5.0,0.0), 4 bad arm(s) ~ N(1.5,0.0)
# Observation noise range from 0.5 to 4.0 with step size 0.1

# Observation noise | mean | standard deviation

0.5 4989.327 3.4515190835317697
0.6 4989.005 4.030970568451675
0.7 4988.942 3.9960736485461097
0.7999999999999999 4988.591999999997 4.493520638400064
0.8999999999999999 4988.2735 4.573988316460677
0.9999999999999999 4987.038000000009 4.947983279937273
1.0999999999999999 4985.032499999999 5.229200540071897
1.1999999999999997 4981.868500000007 5.06740923810051
1.2999999999999996 4978.931999999996 4.749097801680865
1.3999999999999995 4976.187999999998 4.205275298995366
1.4999999999999993 4974.119499999996 4.634592668099245
1.5999999999999992 4971.9285 4.24766764594768
1.699999999999999 4969.037500000001 4.502678965667857
1.799999999999999 4966.065999999994 4.664858508562168
1.8999999999999988 4962.821500000001 4.768556057851969
1.9999999999999987 4959.139499999994 5.1802147035015915
2.0999999999999988 4955.814499999991 5.168128220090849
2.199999999999999 4952.6609999999955 5.23846547383107
2.299999999999999 4949.378 5.329495240594485
2.399999999999999 4945.832499999994 5.215111805238773
2.499999999999999 4942.052500000004 5.599271880842683
2.599999999999999 4938.233999999996 6.033004321326237
2.6999999999999993 4934.2685 5.714745494426316
2.7999999999999994 4930.173500000001 6.389481451825562
2.8999999999999995 4926.0959999999895 6.226881888879707
2.9999999999999996 4921.948500000006 6.711642414036522
3.0999999999999996 4917.482499999993 6.5427250439706945
3.1999999999999997 4913.782999999992 7.119979291058763
3.3 4909.012500000002 6.865911045482913
3.4 4904.511499999995 7.511627140126994
3.5 4899.856499999998 7.736666838100467
3.6 4895.586500000007 8.247259243835833
3.7 4890.879 7.965821571772321
3.8000000000000003 4886.287000000009 8.489328577673282
3.9000000000000004 4880.868999999999 8.423763932993372
4.0 4876.441500000001 8.841238332114232
