# Rounds: 1000, repetitions: 1000
# Good arm ~ N(5.0,1.0), 4 bad arm(s) ~ N(4.3,1.0)
# Observation noise range from 0.5 to 4.0 with step size 0.1

# Observation noise | mean | standard deviation

0.5 4943.216447318733 147.9064669526941
0.6 4962.581571189635 96.10832365742039
0.7 4965.391865963053 77.15400050496675
0.7999999999999999 4966.280454005686 55.14718413724332
0.8999999999999999 4961.257901687366 53.906914268445604
0.9999999999999999 4958.417273287086 44.567321003214886
1.0999999999999999 4954.293800094748 39.441314565384204
1.1999999999999997 4946.726041744324 40.26278486721549
1.2999999999999996 4942.43955769248 37.30915508750112
1.3999999999999995 4937.2950551857075 39.10934623747654
1.4999999999999993 4927.581636916348 39.11903967579844
1.5999999999999992 4922.630360266456 41.70991007450274
1.699999999999999 4916.056409295497 40.58610098608605
1.799999999999999 4908.925391250828 38.076309576733365
1.8999999999999988 4900.523838099845 41.477515623022875
1.9999999999999987 4894.1461037227855 40.97089621482025
2.0999999999999988 4886.281855860349 41.45912469815167
2.199999999999999 4879.401743617904 40.44572112681431
2.299999999999999 4871.81021612913 41.73699772285137
2.399999999999999 4867.052860581656 43.286661373837
2.499999999999999 4855.519453018048 43.11021063107121
2.599999999999999 4850.658331242304 43.93302852223889
2.6999999999999993 4844.091261651223 44.32690462561116
2.7999999999999994 4836.974830177646 44.05686364362368
2.8999999999999995 4828.863988099577 44.07060432952719
2.9999999999999996 4825.064246506003 44.49623822518601
3.0999999999999996 4816.810016990351 44.01792066409679
3.1999999999999997 4810.810239541139 45.25954841472917
3.3 4801.200847326327 47.99110022513309
3.4 4796.026263516152 46.29688081119366
3.5 4792.59868373772 45.06610819668754
3.6 4781.559865276823 48.22759815750725
3.7 4776.322883693303 46.08586516349828
3.8000000000000003 4770.01918196074 46.61528458390568
3.9000000000000004 4766.882727674495 46.621238981218625
4.0 4761.5665723493075 48.29805584659538
