# Rounds: 1000, repetitions: 1000
# Good arm ~ N(5.0,0.0), 4 bad arm(s) ~ N(4.4,0.0)
# Observation noise range from 0.5 to 4.0 with step size 0.1

# Observation noise | mean | standard deviation

0.5 4988.733999999999 2.6524780186911743
0.6 4983.965199999998 2.315061223481713
0.7 4978.682799999996 2.327660233402286
0.7999999999999999 4973.268400000001 2.358882312826557
0.8999999999999999 4967.322400000002 2.1295335529531894
0.9999999999999999 4961.074000000002 2.1831376708971746
1.0999999999999999 4954.373199999993 2.4414672888496165
1.1999999999999997 4947.7762 2.675472240878656
1.2999999999999996 4940.934400000004 2.825101385408681
1.3999999999999995 4934.004399999997 3.054326365919289
1.4999999999999993 4926.8794000000025 3.244210310775263
1.5999999999999992 4919.8155999999935 3.445290505409849
1.699999999999999 4912.458399999987 3.8263337897093335
1.799999999999999 4905.258400000007 4.01323504114761
1.8999999999999988 4897.8904000000075 4.184387283335101
1.9999999999999987 4890.694599999999 4.402616707581315
2.0999999999999988 4883.224600000003 4.668287453418866
2.199999999999999 4876.140399999995 5.029328183960775
2.299999999999999 4869.099400000007 5.095131009110499
2.399999999999999 4861.616200000003 5.539254543790204
2.499999999999999 4854.9364 5.546357103281128
2.599999999999999 4847.942799999998 5.874708534077222
2.6999999999999993 4840.9804000000095 6.397861241732904
2.7999999999999994 4834.459599999999 6.533441183150902
2.8999999999999995 4827.6496000000125 6.793715803182617
2.9999999999999996 4821.064000000015 7.196906242230676
3.0999999999999996 4814.3770000000095 7.210752106815485
3.1999999999999997 4807.873000000006 7.3305967457394905
3.3 4801.659400000004 7.741946097033072
3.4 4795.571200000012 8.043837011891162
3.5 4789.856200000003 8.233236772238728
3.6 4783.844199999999 8.476259395118035
3.7 4778.203600000005 8.639777357825098
3.8000000000000003 4772.569000000007 8.57506914320846
3.9000000000000004 4766.876200000003 9.232821809097866
4.0 4761.308200000014 9.317688129148024
