# Rounds: 1000, repetitions: 1000
# Good arm ~ N(5.0,1.0), 4 bad arm(s) ~ N(3.8,1.0)
# Observation noise range from 0.5 to 4.0 with step size 0.1

# Observation noise | mean | standard deviation

0.5 4976.927843620548 97.59049113660372
0.6 4976.192719313308 90.27575111248557
0.7 4977.219609384274 66.28921981542133
0.7999999999999999 4977.324537110188 54.070020811958244
0.8999999999999999 4973.924731801087 52.2896440433958
0.9999999999999999 4971.572294962545 34.55532359784528
1.0999999999999999 4968.356578402413 34.21375081842743
1.1999999999999997 4965.340290204462 33.0431373328428
1.2999999999999996 4960.759160888523 34.42686665698205
1.3999999999999995 4954.056007229903 34.481720945295905
1.4999999999999993 4951.564924044657 33.43469513708031
1.5999999999999992 4946.699076933015 36.86941663872016
1.699999999999999 4941.253042087115 34.318950282127055
1.799999999999999 4932.895574623834 35.55978798346186
1.8999999999999988 4927.271635374001 35.22079576275885
1.9999999999999987 4922.993750160821 36.612218715282104
2.0999999999999988 4916.574777460376 36.18095342529674
2.199999999999999 4909.692887252881 35.895507706295575
2.299999999999999 4904.804212440147 37.208250608510674
2.399999999999999 4898.38537539975 37.53402076440198
2.499999999999999 4893.218576322011 38.02683357592814
2.599999999999999 4884.86545528024 38.94292101124365
2.6999999999999993 4879.94624356568 38.54917326509521
2.7999999999999994 4875.758454639058 38.27383613545859
2.8999999999999995 4866.547726889362 39.41064894758229
2.9999999999999996 4860.389831030518 38.53244326664449
3.0999999999999996 4853.951214119111 39.067676573928615
3.1999999999999997 4848.2336057491775 39.945819874478104
3.3 4842.721258562101 40.746132358005404
3.4 4836.75450619695 39.171724239909764
3.5 4828.742286577036 41.021035308087285
3.6 4820.564444345755 40.34186894386928
3.7 4813.482829764374 40.909391229255235
3.8000000000000003 4808.851416651253 41.79189001406581
3.9000000000000004 4799.073568170568 43.33302778031649
4.0 4794.494898670535 43.48155135132827
