# Rounds: 1000, repetitions: 1000
# Good arm ~ N(5.0,0.0), 19 bad arm(s) ~ N(0.5,0.0)
# Observation noise range from 0.5 to 8.0 with step size 0.1

# Observation noise | mean | standard deviation

0.5 4919.175999999997 1.5778192271339246
0.6 4919.059000000004 2.0354759055715195
0.7 4918.897000000004 2.3825548404113506
0.7999999999999999 4918.667500000002 3.4722111110933613
0.8999999999999999 4918.4605 3.2517323865154637
0.9999999999999999 4918.1319999999905 3.929060131063637
1.0999999999999999 4916.903499999992 4.890844314441861
1.1999999999999997 4914.253000000006 6.0846128482848725
1.2999999999999996 4908.002499999993 8.307813401462102
1.3999999999999995 4896.046000000004 10.365994300492265
1.4999999999999993 4880.242000000005 11.259072017830945
1.5999999999999992 4863.947500000001 10.510588290681683
1.699999999999999 4849.169500000004 8.80804185681197
1.799999999999999 4836.655000000005 7.942232309247487
1.8999999999999988 4826.111499999997 7.8911398313448595
1.9999999999999987 4815.0009999999975 9.319460893815192
2.0999999999999988 4802.828499999998 10.309734641511316
2.199999999999999 4788.851499999996 11.08679912620704
2.299999999999999 4774.262499999996 10.755930168227385
2.399999999999999 4758.228999999996 11.378995585751001
2.499999999999999 4742.825499999991 11.532163307053054
2.599999999999999 4727.80899999999 12.361445074275295
2.6999999999999993 4711.649499999998 12.714600300867112
2.7999999999999994 4695.6835 13.170783852804572
2.8999999999999995 4679.258499999997 13.575039943199437
2.9999999999999996 4662.356500000003 13.84510182680484
3.0999999999999996 4644.2845 14.709152556110023
3.1999999999999997 4626.847000000004 15.191243032249352
3.3 4610.323000000002 15.017263039222188
3.4 4591.715500000004 15.549215023204065
3.5 4572.531999999999 16.523437898936184
3.6 4554.500499999999 17.117250071200115
3.7 4535.276500000003 17.215041545271
3.8000000000000003 4516.682499999998 17.003839987612317
3.9000000000000004 4496.80599999999 17.318972567990613
4.0 4476.592000000004 18.413176832939175
4.1 4458.304000000003 19.376352263184792
4.199999999999999 4435.736499999997 20.66528179390788
4.299999999999999 4415.473000000003 19.660959394808902
4.399999999999999 4393.292499999995 20.743010056792983
4.499999999999998 4374.127000000003 22.276986670892764
4.599999999999998 4353.795999999997 21.89643436356338
4.6999999999999975 4331.341000000002 21.91593089574392
4.799999999999997 4309.583500000002 22.866222728992458
4.899999999999997 4287.0115000000105 23.498644728027497
4.9999999999999964 4267.0135 24.512679151598068
5.099999999999996 4240.9405 25.2773743772055
5.199999999999996 4219.925499999989 25.92471389505662
5.299999999999995 4197.3984999999975 25.264376827590272
5.399999999999995 4172.855499999996 26.50245743322683
5.499999999999995 4151.156500000003 28.11401172734705
5.599999999999994 4126.411 28.005828061412604
5.699999999999994 4103.982999999995 29.07315702601714
5.799999999999994 4079.228500000003 28.77656387372159
5.899999999999993 4055.6260000000034 29.16723077961552
5.999999999999993 4032.0685000000035 30.613375124061136
6.0999999999999925 4007.6784999999986 30.557612069751197
6.199999999999992 3981.9115000000024 31.732536482632824
6.299999999999992 3956.8330000000014 33.26811353801687
6.3999999999999915 3930.904000000003 33.125270830101414
6.499999999999991 3904.6554999999994 34.341751930786444
6.599999999999991 3879.2484999999997 34.202628810773604
6.69999999999999 3856.0464999999995 36.28844773738868
6.79999999999999 3831.220000000003 35.45145138644403
6.89999999999999 3803.0410000000006 36.44199278082687
6.999999999999989 3781.1439999999984 37.39118699459626
7.099999999999989 3751.5969999999998 38.27254078812092
7.199999999999989 3726.963999999998 38.55093226341466
7.299999999999988 3701.795500000001 39.97882860323048
7.399999999999988 3670.682500000002 38.98278596190054
7.499999999999988 3645.558999999998 39.68075202262531
7.599999999999987 3619.3464999999997 41.65278072220255
7.699999999999987 3592.8324999999945 43.78744150762616
7.7999999999999865 3566.3139999999967 43.62743124178589
7.899999999999986 3539.403999999996 42.491968080466116
7.999999999999986 3516.2065 46.06671520740327
