# Rounds: 1000, repetitions: 1000
# Good arm ~ N(5.0,1.0), 19 bad arm(s) ~ N(0.5,1.0)
# Observation noise range from 0.5 to 8.0 with step size 0.1

# Observation noise | mean | standard deviation

0.5 4918.8526405038565 31.780741503213118
0.6 4917.836110839345 33.08534509219712
0.7 4916.682017428552 31.794464205631716
0.7999999999999999 4915.491578957019 31.543045293674595
0.8999999999999999 4914.4643042322505 33.21617558582946
0.9999999999999999 4911.6480275340955 32.304775587212504
1.0999999999999999 4908.991882994016 32.417450889107094
1.1999999999999997 4902.7030702905795 34.040240251931124
1.2999999999999996 4893.252935298267 33.6305223260406
1.3999999999999995 4883.222092544693 33.325561145788626
1.4999999999999993 4874.9456934427935 33.15395000847915
1.5999999999999992 4862.982307575862 35.658317543404266
1.699999999999999 4847.6767868845745 34.76877433929213
1.799999999999999 4836.323081233212 35.46038713240402
1.8999999999999988 4823.231341866251 36.734524854837105
1.9999999999999987 4809.9977887846035 35.94538536890214
2.0999999999999988 4796.720897505709 34.66559503097866
2.199999999999999 4784.450521044442 34.87335448140823
2.299999999999999 4768.699600763469 36.10779810168858
2.399999999999999 4754.5638452276 37.05217436018824
2.499999999999999 4740.161106589752 37.53968797757161
2.599999999999999 4726.346187192442 36.691430896780425
2.6999999999999993 4709.054188000673 36.62858565170739
2.7999999999999994 4690.118951427552 39.3770510617434
2.8999999999999995 4676.340003480189 39.15311039735822
2.9999999999999996 4659.814409276524 39.261033717071356
3.0999999999999996 4640.576580555088 41.38117838270283
3.1999999999999997 4623.5921714531105 39.722224974824016
3.3 4604.857891115373 40.563896829346064
3.4 4587.152188884293 40.936185275650736
3.5 4569.320769923036 40.86056614584292
3.6 4553.4973680667 42.329895873896234
3.7 4533.2873086425925 44.212027859078695
3.8000000000000003 4514.527289995495 44.642961417416196
3.9000000000000004 4490.362252684832 44.48580866491678
4.0 4471.693351097483 45.534061741670904
4.1 4452.201147572901 44.97136827888162
4.199999999999999 4431.977584023123 44.92232348789372
4.299999999999999 4412.5464398572 45.350873524880974
4.399999999999999 4393.288419924469 46.05808955571078
4.499999999999998 4369.500104642631 48.15135021003468
4.599999999999998 4350.788758423218 47.98059802216676
4.6999999999999975 4326.186968011077 47.31288746750057
4.799999999999997 4303.788205847124 48.09487228680187
4.899999999999997 4283.421842788484 49.74370010331862
4.9999999999999964 4260.932508136472 50.82294740031767
5.099999999999996 4239.8279178238545 50.8181087102337
5.199999999999996 4214.443909238837 52.138664171694856
5.299999999999995 4191.772766708343 51.52962798754313
5.399999999999995 4169.299285021846 52.90034356735762
5.499999999999995 4147.693902899395 55.35536984160923
5.599999999999994 4120.250048998229 54.78025204796717
5.699999999999994 4100.083736296616 53.42051897629805
5.799999999999994 4077.165355655427 57.01926660576377
5.899999999999993 4053.8344333519494 57.29507100428187
5.999999999999993 4029.4682136555034 58.86746859961977
6.0999999999999925 4000.1085868449004 58.68902446721766
6.199999999999992 3976.9668240566343 60.80010910966534
6.299999999999992 3953.5173684716765 62.9203617238802
6.3999999999999915 3924.6279466145743 61.26991132239333
6.499999999999991 3902.439874590993 62.74078497817938
6.599999999999991 3874.741352591473 62.59743665673894
6.69999999999999 3853.379294195833 62.87816887476733
6.79999999999999 3826.1208964260372 65.9067757429081
6.89999999999999 3799.5746367987995 67.88789202298457
6.999999999999989 3773.48594586618 67.81840075012924
7.099999999999989 3743.4849185738926 65.11850132953661
7.199999999999989 3719.1429209041225 68.88766025855938
7.299999999999988 3694.8110214701496 69.68222389729105
7.399999999999988 3673.1649889896084 70.4933304486779
7.499999999999988 3642.315767731332 69.50674268562284
7.599999999999987 3616.7753087574115 73.49070162365602
7.699999999999987 3588.17459218875 74.55812110481463
7.7999999999999865 3565.34400537796 72.33318635102523
7.899999999999986 3536.352285359998 77.55164690813508
7.999999999999986 3505.971380232727 75.00924310495286
