# Rounds: 1000, repetitions: 1000
# Good arm ~ N(5.0,0.0), 19 bad arm(s) ~ N(4.5,0.0)
# Observation noise range from 0.5 to 8.0 with step size 0.1

# Observation noise | mean | standard deviation

0.5 4927.762000000005 2.179473814044591
0.6 4904.433999999997 2.399771427220275
0.7 4879.585499999999 2.93403277048815
0.7999999999999999 4854.360500000001 3.3305228016231885
0.8999999999999999 4829.142000000009 3.716873841166984
0.9999999999999999 4803.9460000000045 3.8875695745796444
1.0999999999999999 4779.9425 4.479677584521156
1.1999999999999997 4756.834500000002 4.434582875003635
1.2999999999999996 4735.361000000002 4.885134956533281
1.3999999999999995 4715.646499999997 5.309329216268929
1.4999999999999993 4697.646 5.387365562843097
1.5999999999999992 4681.1760000000095 5.474394303755704
1.699999999999999 4666.584999999996 5.6105037877852855
1.799999999999999 4653.796500000006 5.42219863044392
1.8999999999999988 4642.976499999997 5.467686287941455
1.9999999999999987 4633.1735000000035 5.413358680357528
2.0999999999999988 4624.890500000003 5.365636010744672
2.199999999999999 4617.241499999999 5.293198059367857
2.299999999999999 4610.664499999997 5.364183462020498
2.399999999999999 4605.22399999999 5.136507345240314
2.499999999999999 4599.951500000001 5.289317028182819
2.599999999999999 4595.437499999992 5.2791299437467165
2.6999999999999993 4591.832499999996 4.8748803275781345
2.7999999999999994 4587.992000000006 5.106957706601549
2.8999999999999995 4584.889499999999 4.8762503594019515
2.9999999999999996 4582.010999999996 4.898762790427463
3.0999999999999996 4579.537000000003 4.990293982726267
3.1999999999999997 4577.417000000008 4.943789240254084
3.3 4574.8005 4.741722649384273
3.4 4573.141500000004 4.830741538709544
3.5 4571.315999999998 4.958097087263078
3.6 4569.622499999999 4.984384399084566
3.7 4568.291499999997 4.830280463840534
3.8000000000000003 4566.968999999996 4.707143103432935
3.9000000000000004 4565.2729999999965 4.818006245760188
4.0 4564.234500000002 4.879402455046973
4.1 4563.214500000004 4.888162628624777
4.199999999999999 4562.315 4.8640964663989035
4.299999999999999 4561.403000000003 4.991092265426697
4.399999999999999 4560.233 5.034238229817322
4.499999999999998 4559.3224999999975 4.938991535464237
4.599999999999998 4558.404500000002 5.068117556407452
4.6999999999999975 4557.612500000008 5.138920339161959
4.799999999999997 4557.133500000012 4.823711843170772
4.899999999999997 4556.198499999994 5.2120065965770355
4.9999999999999964 4555.7625 5.145611826699634
5.099999999999996 4554.862499999994 5.231511489279418
5.199999999999996 4554.429500000005 5.243784609137484
5.299999999999995 4553.667499999998 5.337432147759031
5.399999999999995 4553.104499999996 5.109396802528249
5.499999999999995 4552.379000000001 5.3007506031653335
5.599999999999994 4551.976499999995 5.4714380545140395
5.699999999999994 4551.518000000003 5.267249749149925
5.799999999999994 4550.940500000001 5.406194288655057
5.899999999999993 4550.574500000003 5.437441081567276
5.999999999999993 4550.203999999997 5.220933071984578
6.0999999999999925 4549.611000000003 5.289154389328615
6.199999999999992 4549.394000000004 5.62653729410207
6.299999999999992 4548.810500000001 5.537508803943674
6.3999999999999915 4548.450500000006 5.575426901604465
6.499999999999991 4547.762499999994 5.668419067493591
6.599999999999991 4547.573500000002 5.516364566272647
6.69999999999999 4546.9734999999955 5.372514463606536
6.79999999999999 4546.980500000002 5.552269576258657
6.89999999999999 4546.473999999999 5.749816030481704
6.999999999999989 4546.160000000005 5.789768684621285
7.099999999999989 4545.764500000003 5.659621990121865
7.199999999999989 4545.478 5.674082411386977
7.299999999999988 4544.993500000003 5.7683170189606745
7.399999999999988 4544.657500000008 5.539415933009471
7.499999999999988 4544.701000000001 5.659384032527599
7.599999999999987 4544.133000000001 5.825998047824337
7.699999999999987 4543.746000000005 5.712189870191049
7.7999999999999865 4543.699999999999 5.908164385526737
7.899999999999986 4543.018999999996 5.523553987121755
7.999999999999986 4542.975500000001 5.6261713050309385
