# Rounds: 1000, repetitions: 1000
# Good arm ~ N(5.0,2.0), 19 bad arm(s) ~ N(0.5,2.0)
# Observation noise range from 0.5 to 8.0 with step size 0.1

# Observation noise | mean | standard deviation

0.5 4897.329931343122 159.403910503457
0.6 4884.74360042634 264.71892619691965
0.7 4895.146127686892 132.99327305124484
0.7999999999999999 4895.790217442496 74.70049949218048
0.8999999999999999 4889.33687189907 140.77200667881243
0.9999999999999999 4885.799437866398 71.89709758202596
1.0999999999999999 4881.884825219451 110.57102299751264
1.1999999999999997 4879.941384746476 68.49145649247033
1.2999999999999996 4869.066824852868 69.61725330535845
1.3999999999999995 4863.926586432948 68.19792743636394
1.4999999999999993 4854.167619568149 70.64708746090979
1.5999999999999992 4846.091951420015 68.40383628142413
1.699999999999999 4834.2896224776705 70.16384176767039
1.799999999999999 4825.055276325942 70.45766865951217
1.8999999999999988 4813.068071496382 70.08854280982874
1.9999999999999987 4798.576183840697 69.48593250041702
2.0999999999999988 4787.799763540218 72.28874244349777
2.199999999999999 4774.034202011816 69.4275116956812
2.299999999999999 4760.736023702297 72.21507454319266
2.399999999999999 4742.332081756471 72.93560744954134
2.499999999999999 4729.166047149924 72.10504130764289
2.599999999999999 4714.425259735402 74.37114612936833
2.6999999999999993 4697.4487135232175 72.91208190148362
2.7999999999999994 4678.209519317362 77.04813312503705
2.8999999999999995 4665.3599762913145 74.4618185766566
2.9999999999999996 4649.478201378996 74.9435824083239
3.0999999999999996 4629.669367374358 76.93509610845408
3.1999999999999997 4607.809101282623 79.14717921937097
3.3 4596.690510754767 75.98156520772046
3.4 4581.746416190622 78.47937826172091
3.5 4559.205985411839 76.45104101298372
3.6 4544.438602754111 78.43181350893212
3.7 4520.93188383094 82.36666090826884
3.8000000000000003 4501.739706080834 82.69942980133555
3.9000000000000004 4481.726381242492 81.90857965067016
4.0 4460.908237808114 84.19712497147701
4.1 4441.388833002835 85.26506846069456
4.199999999999999 4422.269966716697 86.27008991207572
4.299999999999999 4401.389446208945 89.39713032045827
4.399999999999999 4383.774271754175 84.83449846175142
4.499999999999998 4358.517305740047 89.17512851669468
4.599999999999998 4336.404258265614 94.62592658739514
4.6999999999999975 4317.769207047087 91.7296176522274
4.799999999999997 4297.7926521335285 88.43430412135338
4.899999999999997 4273.613450422779 94.3836895857894
4.9999999999999964 4249.135294836315 92.97428702503018
5.099999999999996 4222.739840556259 93.8319058993089
5.199999999999996 4205.166529687402 97.41344852974373
5.299999999999995 4178.37394945475 101.13742367967338
5.399999999999995 4156.203325831048 98.0602441565221
5.499999999999995 4136.652436758265 99.03662458992079
5.599999999999994 4111.066939741011 97.10798327121526
5.699999999999994 4080.5259432115763 102.2051614313148
5.799999999999994 4073.948429936394 103.72399864982677
5.899999999999993 4040.0122144742495 99.60917721485548
5.999999999999993 4012.309721834069 102.68321532641971
6.0999999999999925 3987.815751157673 102.00766229702035
6.199999999999992 3958.350625805511 108.84642958174115
6.299999999999992 3939.085328147238 107.80908563985243
6.3999999999999915 3918.726740315717 109.07952292705554
6.499999999999991 3889.6697665711313 110.56909769249027
6.599999999999991 3860.9765997412205 110.11651572497665
6.69999999999999 3835.6314009515468 115.63722921954691
6.79999999999999 3813.217826846079 118.01136733554539
6.89999999999999 3784.1803108285126 113.63953162673447
6.999999999999989 3757.326559581621 122.72622958940293
7.099999999999989 3731.764106601592 119.26345870482824
7.199999999999989 3702.96726705213 122.0030853304186
7.299999999999988 3683.8711618948005 121.83002864608112
7.399999999999988 3660.4618207976323 127.81887128201362
7.499999999999988 3635.1967220151146 127.60138696546032
7.599999999999987 3600.868779450209 128.26814810865508
7.699999999999987 3574.460847280834 132.90983451113456
7.7999999999999865 3551.0724511158232 126.43184233387913
7.899999999999986 3519.4989394494205 134.6861480573776
7.999999999999986 3495.779484253717 129.05981864039296
