# Rounds: 10000, repetitions: 1000
# Good arm ~ N(5.0,0.0), 7 bad arm(s) ~ N(3.0,0.0)
# Observation noise range from 0.5 to 8.0 with step size 0.1

# Observation noise | mean | standard deviation

0.5 49985.447999999924 6.448634032171553
0.6 49977.704 4.791590898996179
0.7 49974.55600000002 3.205798050586047
0.7999999999999999 49968.724 3.634423342572088
0.8999999999999999 49960.89399999997 3.046645047596761
0.9999999999999999 49953.644000000066 3.650560311868627
1.0999999999999999 49945.24199999999 3.5073833177651914
1.1999999999999997 49936.70199999996 3.645337362231961
1.2999999999999996 49927.56400000005 3.552819517865543
1.3999999999999995 49917.74400000008 3.856077454270544
1.4999999999999993 49907.03800000003 3.966142494450478
1.5999999999999992 49896.43000000004 4.140560861072328
1.699999999999999 49885.108000000015 4.53617822763972
1.799999999999999 49873.46399999999 4.653424369038214
1.8999999999999988 49861.04999999995 4.816710568500102
1.9999999999999987 49848.70800000001 5.143266392983135
2.0999999999999988 49835.80799999997 5.606654133310772
2.199999999999999 49822.334000000024 5.7856648639476855
2.299999999999999 49809.06800000007 6.061032264566112
2.399999999999999 49794.71 6.4350065508365235
2.499999999999999 49780.04800000005 6.533634852391528
2.599999999999999 49765.72399999995 6.510161764979879
2.6999999999999993 49750.4380000001 6.981754858264643
2.7999999999999994 49735.19200000001 7.553289891708613
2.8999999999999995 49719.90400000005 7.51313724293868
2.9999999999999996 49704.026000000034 7.699519894552361
3.0999999999999996 49687.134000000005 7.995622175539212
3.1999999999999997 49670.78599999995 8.31308073528162
3.3 49654.18799999997 8.404480429585794
3.4 49636.763999999945 8.786210872810905
3.5 49619.65599999998 9.039212984069575
3.6 49601.497999999934 9.274157967492622
3.7 49583.92999999997 9.482458384670988
3.8000000000000003 49565.70599999999 9.448960093409655
3.9000000000000004 49547.75399999999 10.24130696583043
4.0 49528.656 10.419511995781342
4.1 49509.930000000015 10.700167923616656
4.199999999999999 49490.75000000003 10.852247291288164
4.299999999999999 49471.524 10.986087479995643
4.399999999999999 49452.17400000004 11.1167128822016
4.499999999999998 49432.31 11.510186114237337
4.599999999999998 49410.96799999998 11.796700307210353
4.6999999999999975 49391.60199999998 12.189757429341507
4.799999999999997 49371.344000000114 12.12718981185377
4.899999999999997 49350.10600000006 12.274013826593723
4.9999999999999964 49329.32799999993 12.924219568370548
5.099999999999996 49309.27600000007 12.646096146548508
5.199999999999996 49287.13199999993 13.599982924089884
5.299999999999995 49265.593999999975 13.205512089637132
5.399999999999995 49243.65199999994 13.540392839140097
5.499999999999995 49222.086 14.126576519601592
5.599999999999994 49199.79199999994 14.272225910222847
5.699999999999994 49178.024000000034 15.035740670066561
5.799999999999994 49155.17799999997 15.297265190952272
5.899999999999993 49133.28399999996 15.553303483480509
5.999999999999993 49110.71599999998 15.742654641932862
6.0999999999999925 49087.393999999986 15.532482802888413
6.199999999999992 49064.78800000005 16.421227503226028
6.299999999999992 49041.972 16.09951584397513
6.3999999999999915 49018.207999999984 16.662363889027738
6.499999999999991 48995.01400000001 17.41456491190838
6.599999999999991 48971.837999999916 17.058744290151072
6.69999999999999 48946.492000000006 16.937438201003534
6.79999999999999 48924.022000000004 18.00365650771111
6.89999999999999 48899.07199999994 17.452662015045412
6.999999999999989 48874.514000000025 18.889908221921797
7.099999999999989 48849.52599999995 18.398527925620336
7.199999999999989 48824.17400000002 19.459403700843342
7.299999999999988 48800.70199999999 18.835869663649213
7.399999999999988 48776.59399999998 19.711410495033096
7.499999999999988 48751.75199999997 19.95416409335824
7.599999999999987 48726.661999999975 19.980013937856917
7.699999999999987 48700.94200000002 19.075127692796638
7.7999999999999865 48675.403999999995 20.65622093858093
7.899999999999986 48649.15400000002 20.90917208971884
7.999999999999986 48623.316000000035 21.46944529048405
