# Rounds: 10000, repetitions: 1000
# Good arm ~ N(5.0,0.0), 7 bad arm(s) ~ N(4.0,0.0)
# Observation noise range from 0.5 to 8.0 with step size 0.1

# Observation noise | mean | standard deviation

0.5 49977.225999999995 3.1242094495543657
0.6 49968.604000000014 2.355149831906796
0.7 49958.54599999999 2.2967714642861354
0.7999999999999999 49947.181000000055 2.1686267410372637
0.8999999999999999 49934.83899999996 2.6818410227437273
0.9999999999999999 49921.80299999996 2.7087872800440476
1.0999999999999999 49907.642 2.8120710772922464
1.1999999999999997 49892.810000000005 3.1333237492665402
1.2999999999999996 49876.838999999934 3.524698923667435
1.3999999999999995 49860.402 3.7403724929993487
1.4999999999999993 49843.31699999996 4.0781297358154935
1.5999999999999992 49825.49199999995 4.195180036129057
1.699999999999999 49806.54599999993 4.226789532227733
1.799999999999999 49787.30500000004 4.647749624988061
1.8999999999999988 49767.81499999997 4.779080938278296
1.9999999999999987 49747.72199999998 5.026129522602618
2.0999999999999988 49726.44500000001 5.53422104750093
2.199999999999999 49705.09700000004 5.863272888836757
2.299999999999999 49683.19099999999 5.7898221942509185
2.399999999999999 49660.55300000005 6.075038855603874
2.499999999999999 49637.79900000003 6.417771169712025
2.599999999999999 49614.06100000003 6.67381591136724
2.6999999999999993 49590.488000000056 6.605261954342522
2.7999999999999994 49566.481 6.885858991734669
2.8999999999999995 49541.85599999997 7.231290033981122
2.9999999999999996 49516.770999999986 7.833129445944165
3.0999999999999996 49491.370000000024 7.841338316039397
3.1999999999999997 49466.20400000002 8.010402645969279
3.3 49439.763 8.471044185316877
3.4 49413.41999999996 8.262800607171485
3.5 49386.602000000086 8.820169578380574
3.6 49359.625999999946 9.520439210601731
3.7 49332.61700000004 9.311767824641034
3.8000000000000003 49304.24899999998 9.702945230503177
3.9000000000000004 49276.70700000003 10.317732629149
4.0 49248.42199999994 9.915454212099082
4.1 49220.128000000026 10.836837779216385
4.199999999999999 49191.54899999998 10.985639866811738
4.299999999999999 49162.488000000056 10.872997658331425
4.399999999999999 49132.870000000024 11.01128277487896
4.499999999999998 49104.151999999965 11.503008963537203
4.599999999999998 49074.36400000004 11.751238045227364
4.6999999999999975 49044.09899999999 12.71356888658077
4.799999999999997 49014.713 12.695739947431747
4.899999999999997 48984.19099999993 12.307477117305329
4.9999999999999964 48954.39700000006 12.906663897885162
5.099999999999996 48923.129000000015 13.510695685193149
5.199999999999996 48893.128000000004 13.481816471654492
5.299999999999995 48861.96100000006 14.298948875317341
5.399999999999995 48831.37700000003 13.93912372318189
5.499999999999995 48799.77099999998 14.019168880361422
5.599999999999994 48768.487999999976 14.893410276685135
5.699999999999994 48737.26600000002 15.083194182491477
5.799999999999994 48706.265999999945 15.303314524489014
5.899999999999993 48673.46199999996 16.062208769361483
5.999999999999993 48642.490000000005 15.50588057261917
6.0999999999999925 48611.05399999993 16.642718049166927
6.199999999999992 48579.04900000005 16.44965623319182
6.299999999999992 48546.461999999956 16.349429955196094
6.3999999999999915 48514.425000000025 16.928347348277736
6.499999999999991 48483.50400000004 16.90259393352641
6.599999999999991 48450.43800000004 17.551416131133447
6.69999999999999 48417.61600000004 17.660703396083893
6.79999999999999 48386.229000000014 18.40008484007935
6.89999999999999 48353.238000000005 18.874893843876794
6.999999999999989 48321.59199999999 18.831095192424243
7.099999999999989 48288.36500000003 18.448689089719373
7.199999999999989 48255.310000000034 18.51244474969768
7.299999999999988 48223.73000000002 19.485450540923697
7.399999999999988 48191.124000000076 20.231558020576166
7.499999999999988 48158.905000000006 20.533085072209243
7.599999999999987 48126.17899999996 21.555964803706203
7.699999999999987 48092.99000000003 20.992679500068387
7.7999999999999865 48059.70099999998 21.01673862192474
7.899999999999986 48027.83599999995 21.12712615240097
7.999999999999986 47995.07899999998 21.690533378371363
