# Rounds: 10000, repetitions: 1000
# Good arm ~ N(5.0,1.0), 7 bad arm(s) ~ N(4.9,1.0)
# Observation noise range from 0.5 to 8.0 with step size 0.1

# Observation noise | mean | standard deviation

0.5 49654.202854297655 367.1770957471126
0.6 49690.5426634147 304.8021832203497
0.7 49703.67512801375 262.3183375800536
0.7999999999999999 49672.95590744072 234.38356462352274
0.8999999999999999 49652.10494903948 206.3852071017768
0.9999999999999999 49628.19106851174 176.33063028969633
1.0999999999999999 49603.67239519925 178.59996714446535
1.1999999999999997 49571.7534457288 160.9198831217979
1.2999999999999996 49533.154305857206 165.91546876489045
1.3999999999999995 49503.588142088476 153.13119828338537
1.4999999999999993 49478.77690386436 151.99951229030154
1.5999999999999992 49446.847229768595 151.56928540872323
1.699999999999999 49434.18894549569 144.41496637194743
1.799999999999999 49416.89338961493 139.6531378644781
1.8999999999999988 49398.36038115115 139.8278922095026
1.9999999999999987 49381.21971706577 138.9700411476331
2.0999999999999988 49362.681135240004 134.1542038043351
2.199999999999999 49353.43557134424 134.5907640034117
2.299999999999999 49337.767804279574 130.72904809921704
2.399999999999999 49332.81635121464 124.28451042348622
2.499999999999999 49310.4137343571 117.13589343029773
2.599999999999999 49301.23242831902 119.75022922868925
2.6999999999999993 49295.381606349816 122.99824586672614
2.7999999999999994 49285.20675520665 118.85348171041161
2.8999999999999995 49276.1013102645 117.01180375192129
2.9999999999999996 49275.33815422223 118.61835976469321
3.0999999999999996 49267.98632731134 116.71859043226407
3.1999999999999997 49258.5345458587 111.86437833482711
3.3 49257.16784794302 110.2338454141892
3.4 49245.40769054598 110.43943756058741
3.5 49239.605113917685 111.36771373552517
3.6 49241.31519743976 106.92827895991101
3.7 49231.12553876255 112.99920967930348
3.8000000000000003 49229.99136579115 107.08688564706638
3.9000000000000004 49230.26612414438 109.06089749709888
4.0 49221.07020057275 107.71031799224896
4.1 49215.57039665711 104.59856547333217
4.199999999999999 49213.61934854863 107.72246876243666
4.299999999999999 49216.12199277177 106.5414897152142
4.399999999999999 49220.42017182659 107.16404937387928
4.499999999999998 49209.47648088596 105.85784225159406
4.599999999999998 49210.358147134335 103.81716165624563
4.6999999999999975 49201.45321072577 104.1932897555711
4.799999999999997 49206.2160012563 104.89137396173133
4.899999999999997 49195.05219432793 104.69491829959584
4.9999999999999964 49198.558195759164 102.87394804608601
5.099999999999996 49197.15001021232 109.16733243501173
5.199999999999996 49197.085351919835 105.02574306387227
5.299999999999995 49194.17286151066 103.27945984730395
5.399999999999995 49187.33746223564 105.59835002778524
5.499999999999995 49193.60666703457 100.6202424059561
5.599999999999994 49195.29691293215 102.61422215947465
5.699999999999994 49192.479821327 107.91295336369514
5.799999999999994 49191.26971760994 106.30190861838136
5.899999999999993 49184.80430832159 101.6776855060204
5.999999999999993 49186.92438449776 105.25544816298917
6.0999999999999925 49183.241818887196 102.24592071737656
6.199999999999992 49182.32368723269 97.48263863271075
6.299999999999992 49182.06758754516 104.64297847445108
6.3999999999999915 49178.61954707578 100.67604136920242
6.499999999999991 49179.3181436674 102.99754242870873
6.599999999999991 49173.883075040605 102.6832057614274
6.69999999999999 49179.312475864535 103.28380210908591
6.79999999999999 49178.788862147914 102.65003170491578
6.89999999999999 49173.05241985599 101.45334536758446
6.999999999999989 49172.591879426654 102.50420664306972
7.099999999999989 49182.2028761711 101.91373285913889
7.199999999999989 49174.17480795587 102.00489402698544
7.299999999999988 49177.55681002664 107.96191434409478
7.399999999999988 49169.05516612772 98.22729621945739
7.499999999999988 49166.943632174996 104.22960930139133
7.599999999999987 49172.017795856234 106.10178277359873
7.699999999999987 49167.09691744168 104.24122619020396
7.7999999999999865 49172.34547622907 101.9805704730426
7.899999999999986 49168.46054949362 101.70058586658395
7.999999999999986 49165.853605196215 100.96067577004966
