# Rounds: 10000, repetitions: 1000
# Good arm ~ N(5.0,1.0), 7 bad arm(s) ~ N(4.5,1.0)
# Observation noise range from 0.5 to 8.0 with step size 0.1

# Observation noise | mean | standard deviation

0.5 49759.94819992964 844.8167821996956
0.6 49818.75978569088 645.6245837669849
0.7 49894.40468540056 274.45286066852395
0.7999999999999999 49895.98861251339 161.03605044045676
0.8999999999999999 49881.49445250862 107.24117701387122
0.9999999999999999 49856.89459788872 159.44213699306854
1.0999999999999999 49843.12352458397 110.3203033897599
1.1999999999999997 49816.77695775013 110.59333306424895
1.2999999999999996 49790.66397904739 103.40084811833032
1.3999999999999995 49765.47261230239 109.753758962251
1.4999999999999993 49743.632127121884 112.27475329927701
1.5999999999999992 49704.86309301071 110.77474161758825
1.699999999999999 49688.02607795437 112.84020975934911
1.799999999999999 49654.29633376583 114.25990225652714
1.8999999999999988 49635.58600432859 110.73896439866014
1.9999999999999987 49593.20028839502 116.73693157987016
2.0999999999999988 49559.795972801134 116.54983003175963
2.199999999999999 49535.41486908085 113.91689915913868
2.299999999999999 49502.07881835841 121.09032972321432
2.399999999999999 49457.673493806054 119.2685949208185
2.499999999999999 49429.15949329262 114.91963836854156
2.599999999999999 49399.68364083017 120.7617737386148
2.6999999999999993 49362.25868607928 124.55235069101252
2.7999999999999994 49331.456381943746 123.28736387574104
2.8999999999999995 49297.033157436446 122.49171194078592
2.9999999999999996 49258.95667027379 122.23176637488952
3.0999999999999996 49217.17527010723 122.5164920199333
3.1999999999999997 49183.588598338225 122.58136808370759
3.3 49145.45128794988 126.41489629492548
3.4 49113.40539330267 127.75882507246216
3.5 49079.4230277425 128.69790034227736
3.6 49038.67232529855 133.46091980116807
3.7 49004.84927117662 128.49078278934707
3.8000000000000003 48965.28410802565 131.34237876422284
3.9000000000000004 48929.73930146244 136.76368076573567
4.0 48891.693397050614 139.19342944345382
4.1 48853.911340478924 137.57604980665386
4.199999999999999 48806.6285966162 137.63123671975538
4.299999999999999 48783.51732214414 138.21480652205256
4.399999999999999 48744.40070442476 134.42453877582994
4.499999999999998 48709.498318614336 141.05599677638634
4.599999999999998 48674.5486688703 141.49802175076582
4.6999999999999975 48632.40112776268 141.17589203148935
4.799999999999997 48599.38589134256 141.5189273125285
4.899999999999997 48566.26405668596 146.68574459449184
4.9999999999999964 48540.83810797771 144.62881661529502
5.099999999999996 48496.50350872665 141.3683743771847
5.199999999999996 48459.95661265312 142.7193130346847
5.299999999999995 48428.3890933768 148.955584129103
5.399999999999995 48387.98937431738 148.53156380725693
5.499999999999995 48357.688431879375 145.7455491664327
5.599999999999994 48325.06740613216 147.15232509031645
5.699999999999994 48285.832693209486 147.50969553034528
5.799999999999994 48264.53197045425 153.19388086019634
5.899999999999993 48216.076893307065 145.80734454388462
5.999999999999993 48189.51857290614 151.02812532345416
6.0999999999999925 48161.25656188838 147.5565308885373
6.199999999999992 48122.42344391823 153.27339314419837
6.299999999999992 48093.28051889247 158.4976113526173
6.3999999999999915 48060.86934642734 152.38755513650742
6.499999999999991 48023.009705046155 152.7508039224306
6.599999999999991 47992.06887076163 152.8539441554546
6.69999999999999 47968.453176107374 150.10361794115641
6.79999999999999 47941.13481446574 152.9271752196251
6.89999999999999 47900.102030202295 157.29489626613957
6.999999999999989 47866.26044296857 147.42997127850663
7.099999999999989 47854.21529708071 150.89697855982277
7.199999999999989 47815.45996460966 156.87154409706108
7.299999999999988 47789.55642606018 156.65168283077676
7.399999999999988 47765.2241890123 154.7313970995277
7.499999999999988 47738.3558827293 152.04996142586285
7.599999999999987 47708.99837951673 148.67283960910353
7.699999999999987 47686.696910016544 154.16771901214463
7.7999999999999865 47651.26739929551 148.12964018778032
7.899999999999986 47628.25964019418 153.16384535298914
7.999999999999986 47602.880994243205 155.23830384113603
