# Rounds: 10000, repetitions: 1000
# Good arm ~ N(5.0,0.0), 7 bad arm(s) ~ N(1.0,0.0)
# Observation noise range from 0.5 to 8.0 with step size 0.1

# Observation noise | mean | standard deviation

0.5 49976.16800000002 2.3701040891474427
0.6 49975.88800000002 3.1580736896769053
0.7 49975.73999999999 3.338194653333338
0.7999999999999999 49975.36000000002 3.9696546648491315
0.8999999999999999 49974.668000000005 4.568440285988912
0.9999999999999999 49971.85199999997 5.267812244741215
1.0999999999999999 49963.90399999994 6.054704240790275
1.1999999999999997 49954.075999999965 4.833382416650424
1.2999999999999996 49948.86399999993 2.751922432968844
1.3999999999999995 49946.13199999997 3.2828879593055644
1.4999999999999993 49941.48799999997 4.886894488091405
1.5999999999999992 49933.504 5.594397311711253
1.699999999999999 49925.47999999996 5.102512678635409
1.799999999999999 49918.327999999994 4.481126699446982
1.8999999999999988 49911.459999999955 5.543566643518489
1.9999999999999987 49903.56000000003 5.88226155496348
2.0999999999999988 49894.61199999996 5.9555793106065416
2.199999999999999 49886.64 6.271661162222776
2.299999999999999 49878.36799999992 6.201212061446563
2.399999999999999 49868.812 6.559854242869115
2.499999999999999 49859.696 6.807784509657383
2.599999999999999 49849.932000000015 7.132899428300881
2.6999999999999993 49840.30400000001 7.221061398972301
2.7999999999999994 49830.62000000006 7.571058111051645
2.8999999999999995 49819.93199999997 7.776364693598601
2.9999999999999996 49809.42800000008 8.015551451089557
3.0999999999999996 49798.66799999999 8.336382385139853
3.1999999999999997 49787.32399999999 8.623769094392182
3.3 49776.823999999935 9.07851548676567
3.4 49765.43999999998 9.120613224207386
3.5 49753.751999999986 9.25722378427748
3.6 49741.48799999999 9.627385031385266
3.7 49729.87199999994 9.78853571436669
3.8000000000000003 49717.516 9.866665855044166
3.9000000000000004 49704.64400000002 10.60423093457118
4.0 49692.044000000016 10.601814111861312
4.1 49679.44399999999 10.921636605662401
4.199999999999999 49666.388 11.155891264704556
4.299999999999999 49653.1879999999 11.369341138250542
4.399999999999999 49639.49200000001 11.54830287528416
4.499999999999998 49625.783999999934 11.806639688782921
4.599999999999998 49612.24800000001 11.847990161663253
4.6999999999999975 49598.05600000005 12.47334952803158
4.799999999999997 49583.85599999998 12.661895102534592
4.899999999999997 49568.619999999995 13.258634597551467
4.9999999999999964 49554.915999999954 13.369056648682161
5.099999999999996 49540.28800000002 13.473328712184841
5.199999999999996 49525.18799999993 13.80939373598118
5.299999999999995 49509.379999999925 14.27204579908881
5.399999999999995 49494.571999999986 13.90172917568446
5.499999999999995 49479.284000000065 14.224263554703692
5.599999999999994 49464.23600000003 13.931632868920843
5.699999999999994 49447.99999999998 14.248193254269697
5.799999999999994 49432.36399999999 14.980384371434216
5.899999999999993 49415.20800000002 15.407079999601251
5.999999999999993 49399.75999999996 15.89550461819514
6.0999999999999925 49382.72399999993 15.749408492634439
6.199999999999992 49365.68000000001 16.052516415917037
6.299999999999992 49349.12399999999 16.487099455284675
6.3999999999999915 49333.63999999999 16.64390036678352
6.499999999999991 49315.26400000003 16.483993024326
6.599999999999991 49298.15600000001 17.665778888680446
6.69999999999999 49279.84800000004 17.588355416190858
6.79999999999999 49263.072000000066 18.11261667686059
6.89999999999999 49244.31999999999 17.68916353326267
6.999999999999989 49227.62799999998 18.55192145816156
7.099999999999989 49209.211999999956 19.336001058567827
7.199999999999989 49191.40000000001 18.370015173032936
7.299999999999988 49172.38000000001 19.077829110345867
7.399999999999988 49154.81599999991 19.366496978163095
7.499999999999988 49136.67200000008 19.624207640705404
7.599999999999987 49117.39200000003 19.440171199252838
7.699999999999987 49097.448000000026 19.845027617040905
7.7999999999999865 49079.676 20.59201435156498
7.899999999999986 49060.420000000006 20.120945615264883
7.999999999999986 49040.27600000004 20.657554515444296
