# Rounds: 10000, repetitions: 1000
# Good arm ~ N(5.0,0.0), 7 bad arm(s) ~ N(4.5,0.0)
# Observation noise range from 0.5 to 8.0 with step size 0.1

# Observation noise | mean | standard deviation

0.5 49961.341 1.3891179390709283
0.6 49945.73550000001 1.5346481339039648
0.7 49928.722499999945 1.7520883435385355
0.7999999999999999 49910.00100000002 2.0194249372227273
0.8999999999999999 49889.66750000002 2.393098550137593
0.9999999999999999 49868.14299999999 2.6592522675787356
1.0999999999999999 49845.41499999996 2.89043761905178
1.1999999999999997 49821.43299999996 2.9944912719822705
1.2999999999999996 49796.27749999998 3.3753721108771
1.3999999999999995 49770.4135 3.5585011845832497
1.4999999999999993 49743.467500000064 3.9815256242169417
1.5999999999999992 49715.72049999997 3.979254228396828
1.699999999999999 49686.52249999997 4.505445903880406
1.799999999999999 49657.36749999996 4.497601824547427
1.8999999999999988 49626.988000000005 4.993224237733448
1.9999999999999987 49596.67249999994 5.020527805863575
2.0999999999999988 49564.676000000036 5.435077190258127
2.199999999999999 49532.41399999998 5.585320026623398
2.299999999999999 49500.16349999999 6.119883227703028
2.399999999999999 49467.106000000014 6.089034434156241
2.499999999999999 49433.65650000004 6.5791749705638365
2.599999999999999 49399.41300000003 6.603789899825731
2.6999999999999993 49365.085000000014 6.671490372007078
2.7999999999999994 49330.55299999999 7.074371897047602
2.8999999999999995 49295.616999999926 7.552937035210772
2.9999999999999996 49260.18049999993 7.735276611360015
3.0999999999999996 49224.48750000002 7.957412529469797
3.1999999999999997 49188.810999999994 8.41314804695957
3.3 49153.67550000001 8.406909412850595
3.4 49116.569500000034 8.978643315433922
3.5 49080.39349999999 8.972955013353792
3.6 49044.141999999985 9.343588103006159
3.7 49007.511999999995 9.543764427071702
3.8000000000000003 48971.39149999999 10.017101380642517
3.9000000000000004 48934.47500000005 10.22552866293173
4.0 48898.16400000005 10.615568486628133
4.1 48861.13299999998 10.834560383268858
4.199999999999999 48825.57999999995 10.857715689314713
4.299999999999999 48788.92800000007 10.81636768096439
4.399999999999999 48752.4025 11.611936997367557
4.499999999999998 48715.82549999999 11.364327859477623
4.599999999999998 48679.65450000003 12.111526279491674
4.6999999999999975 48644.43949999993 12.014488656937823
4.799999999999997 48608.32199999999 12.162246348279474
4.899999999999997 48572.81150000007 12.620915388958673
4.9999999999999964 48536.959 12.830098613433478
5.099999999999996 48501.46399999996 13.258355402838975
5.199999999999996 48466.273499999945 12.976761695203276
5.299999999999995 48431.358499999995 13.594559198068561
5.399999999999995 48397.08150000004 14.498338165443657
5.499999999999995 48362.613499999985 14.69906222111391
5.599999999999994 48328.912 14.644972899641369
5.699999999999994 48295.085 14.731031134251163
5.799999999999994 48261.29300000002 15.163231007096615
5.899999999999993 48228.02700000008 15.471914915457305
5.999999999999993 48195.69149999999 14.958068778140223
6.0999999999999925 48162.45300000001 15.527552798039205
6.199999999999992 48129.850499999986 15.47515363833686
6.299999999999992 48098.73150000013 16.10529534930322
6.3999999999999915 48066.9455 16.546058497473183
6.499999999999991 48034.56649999998 16.739116636662015
6.599999999999991 48003.83399999996 16.70084915093721
6.69999999999999 47974.63849999997 16.610447758104655
6.79999999999999 47944.799999999974 17.217925454506965
6.89999999999999 47913.99650000001 17.444025675909298
6.999999999999989 47885.000500000024 17.669761464723337
7.099999999999989 47854.827499999985 17.768630165771523
7.199999999999989 47827.29749999991 17.64020750078273
7.299999999999988 47798.333999999944 18.792914026771328
7.399999999999988 47772.087499999994 18.56490639619546
7.499999999999988 47743.398499999996 19.34230007838582
7.599999999999987 47715.553499999914 18.6904446300903
7.699999999999987 47689.44499999997 19.044610055660655
7.7999999999999865 47663.63650000003 19.584769105887585
7.899999999999986 47636.17650000003 18.955260474328686
7.999999999999986 47612.17699999996 19.434914120903336
