# Rounds: 500, repetitions: 1000
# Good arm ~ N(5.0,0.0), 1 bad arm(s) ~ N(1.5,0.0)
# Observation noise range from 0.5 to 4.0 with step size 0.1

# Observation noise | mean | standard deviation

0.5 2499.5435000000034 3.5340270368373115
0.6 2499.6135000000013 3.62305040597622
0.7 2499.5049999999997 3.8120869621516884
0.7999999999999999 2499.5400000000004 3.8206016537970444
0.8999999999999999 2499.158500000002 4.350408464018521
0.9999999999999999 2499.0044999999996 4.229198016866304
1.0999999999999999 2498.441000000004 4.4736486822874815
1.1999999999999997 2497.9299999999976 3.9704362939561535
1.2999999999999996 2497.411999999996 3.911592585706793
1.3999999999999995 2496.5965 3.855425015747543
1.4999999999999993 2496.1344999999983 3.6507516674977802
1.5999999999999992 2495.889500000004 3.2725753619282005
1.699999999999999 2494.8885 3.716938711276166
1.799999999999999 2494.122000000001 3.833315837536767
1.8999999999999988 2493.015999999999 3.980651905101662
1.9999999999999987 2492.620500000004 3.5756139004043264
2.0999999999999988 2491.7069999999985 3.88551775806627
2.199999999999999 2490.8950000000004 3.9136673072441535
2.299999999999999 2489.788999999996 3.9280285651212576
2.399999999999999 2489.0015000000008 3.760037983270345
2.499999999999999 2487.9619999999973 4.005758617553242
2.599999999999999 2486.8560000000007 4.334460929752571
2.6999999999999993 2485.6065 4.680204275676663
2.7999999999999994 2485.0290000000027 4.0649948564768374
2.8999999999999995 2483.853000000001 4.454574528979636
2.9999999999999996 2482.5650000000032 4.726586042337046
3.0999999999999996 2481.6059999999975 4.4599501292228805
3.1999999999999997 2480.4649999999997 4.3369440951070795
3.3 2479.107000000002 5.107752944313188
3.4 2477.993999999999 4.7979667031446445
3.5 2476.327999999991 5.1621278135633135
3.6 2475.372499999999 5.109167970163766
3.7 2473.895500000001 4.822041251568838
3.8000000000000003 2472.8490000000015 5.152936226245321
3.9000000000000004 2471.3089999999956 5.411451081068996
4.0 2469.6429999999987 5.319431111251202
