# Rounds: 500, repetitions: 1000
# Good arm ~ N(5.0,0.0), 1 bad arm(s) ~ N(3.3,0.0)
# Observation noise range from 0.5 to 4.0 with step size 0.1

# Observation noise | mean | standard deviation

0.5 2499.318599999998 5.901494868394138
0.6 2499.2319000000007 5.078271480654742
0.7 2498.657300000001 5.165278967956804
0.7999999999999999 2498.1745000000033 5.298026881664374
0.8999999999999999 2497.5913999999952 4.975630909034827
0.9999999999999999 2496.554400000001 5.879871897714578
1.0999999999999999 2496.221200000004 4.799022940264084
1.1999999999999997 2495.4120000000003 4.7812965602225725
1.2999999999999996 2494.874800000003 4.042183098797464
1.3999999999999995 2493.5691999999963 4.614236940442333
1.4999999999999993 2492.877300000001 3.9974835314963872
1.5999999999999992 2491.7417 4.0872113239233
1.699999999999999 2490.769300000001 3.905798608834415
1.799999999999999 2489.579300000003 3.7224774476614764
1.8999999999999988 2488.530399999999 3.7637084559435494
1.9999999999999987 2487.355699999997 3.882770069604035
2.0999999999999988 2485.8529000000003 4.156424840828628
2.199999999999999 2484.4571999999976 4.06817873725308
2.299999999999999 2483.4711999999963 3.8028768626439287
2.399999999999999 2481.800100000001 4.353775988191806
2.499999999999999 2480.4978999999994 4.345808514148018
2.599999999999999 2478.770700000002 5.022827919639497
2.6999999999999993 2477.667400000002 4.455422317584275
2.7999999999999994 2475.894299999999 4.517466658982107
2.8999999999999995 2474.0888999999993 5.258217915382135
2.9999999999999996 2472.6472999999955 4.874069065909837
3.0999999999999996 2470.9812999999986 5.07950407733585
3.1999999999999997 2469.4088000000024 5.3602177655851
3.3 2467.5081999999998 5.65109614567362
3.4 2465.8728000000006 5.732584293552296
3.5 2464.451599999999 5.337554395687885
3.6 2462.2450000000003 5.985326986818604
3.7 2460.5415999999987 6.024204551679845
3.8000000000000003 2458.387700000003 6.34611943962149
3.9000000000000004 2456.7812000000035 6.317350352440117
4.0 2454.890800000003 6.589435181866216
