# Rounds: 500, repetitions: 1000
# Good arm ~ N(5.0,0.0), 1 bad arm(s) ~ N(4.6,0.0)
# Observation noise range from 0.5 to 4.0 with step size 0.1

# Observation noise | mean | standard deviation

0.5 2498.8703999999975 2.9254336434111727
0.6 2497.344400000002 2.668398206600522
0.7 2495.7651999999953 2.5880121264721003
0.7999999999999999 2494.082400000004 2.4203198524550453
0.8999999999999999 2492.3112000000037 2.2962812256923635
0.9999999999999999 2490.2720000000004 2.3353864840813356
1.0999999999999999 2488.238400000002 2.2777958191623546
1.1999999999999997 2486.058000000001 2.513593872158714
1.2999999999999996 2483.8472000000024 2.4861442180760034
1.3999999999999995 2481.7228000000036 2.5002662841167824
1.4999999999999993 2479.393199999999 2.6767590102208456
1.5999999999999992 2477.08 2.7818372739285904
1.699999999999999 2474.9476 3.1828328050125454
1.799999999999999 2472.444799999999 3.3166780539137046
1.8999999999999988 2470.246 3.719532083329615
1.9999999999999987 2468.0623999999975 3.700275432758718
2.0999999999999988 2465.7747999999992 3.8541795053758414
2.199999999999999 2463.6675999999984 3.976576844901047
2.299999999999999 2461.1576 4.400578067405129
2.399999999999999 2458.8223999999996 4.2944080127743005
2.499999999999999 2456.6983999999998 4.465334999376503
2.599999999999999 2454.5723999999946 4.690411303734217
2.6999999999999993 2452.201999999997 5.004150029477282
2.7999999999999994 2450.175199999998 5.150844217810935
2.8999999999999995 2448.2379999999976 5.379023135281167
2.9999999999999996 2446.1279999999942 5.458289927159383
3.0999999999999996 2444.282399999996 5.596761025269417
3.1999999999999997 2442.3628000000017 5.664201562386347
3.3 2440.3623999999945 5.9344590355014954
3.4 2438.5815999999954 6.064080681728751
3.5 2436.928399999995 6.24626362309908
3.6 2434.379999999993 6.115858379959866
3.7 2432.8163999999892 6.494550810505095
3.8000000000000003 2431.966799999994 6.7119078858003975
3.9000000000000004 2429.7551999999937 6.674703336076225
4.0 2428.2707999999934 7.225931181615577
