# Rounds: 500, repetitions: 1000
# Good arm ~ N(5.0,0.0), 1 bad arm(s) ~ N(3.4,0.0)
# Observation noise range from 0.5 to 4.0 with step size 0.1

# Observation noise | mean | standard deviation

0.5 2499.4303999999997 5.413366824849424
0.6 2499.047999999996 5.322655978613214
0.7 2498.524800000001 5.460769631193524
0.7999999999999999 2498.0863999999983 5.432816077370072
0.8999999999999999 2497.5184 4.810671886961733
0.9999999999999999 2496.862399999999 4.911251024599159
1.0999999999999999 2495.798399999998 5.0583776672590215
1.1999999999999997 2495.2447999999986 4.3937794958621055
1.2999999999999996 2494.331200000003 4.451773224777366
1.3999999999999995 2493.396799999998 4.287784375974973
1.4999999999999993 2492.358399999998 4.221138169670308
1.5999999999999992 2491.2799999999997 3.9931472831872306
1.699999999999999 2490.5024000000003 3.455386220661028
1.799999999999999 2488.8895999999995 4.027608902745369
1.8999999999999988 2488.0064 3.652267528275836
1.9999999999999987 2486.526400000001 4.632342996976974
2.0999999999999988 2485.236799999999 4.277492571905023
2.199999999999999 2484.008 4.065403239963243
2.299999999999999 2482.3920000000003 4.391302715543495
2.399999999999999 2480.9743999999996 4.383313595680577
2.499999999999999 2479.3744000000006 4.560383946746346
2.599999999999999 2478.136 4.218314613465713
2.6999999999999993 2476.5823999999966 4.28042197128417
2.7999999999999994 2474.7568000000006 4.924744345330729
2.8999999999999995 2473.5088000000005 4.728970894996696
2.9999999999999996 2471.435199999998 5.132436347667962
3.0999999999999996 2469.825599999998 5.360589572104988
3.1999999999999997 2467.935999999997 5.574780908895194
3.3 2466.7103999999995 5.26910004225154
3.4 2464.452800000001 5.5515792520860705
3.5 2462.7584 5.695836373351342
3.6 2461.164799999999 6.000203613495398
3.7 2458.622400000003 6.354150885324798
3.8000000000000003 2457.140799999996 6.433198380386038
3.9000000000000004 2455.1632000000013 6.346138923726728
4.0 2453.1359999999936 6.841016262479099
