# Rounds: 500, repetitions: 1000
# Good arm ~ N(5.0,0.0), 1 bad arm(s) ~ N(3.8,0.0)
# Observation noise range from 0.5 to 4.0 with step size 0.1

# Observation noise | mean | standard deviation

0.5 2499.490799999995 5.118518789121939
0.6 2498.800800000003 5.332942868589453
0.7 2498.4096000000004 4.62471792176083
0.7999999999999999 2497.4687999999983 4.786139748658974
0.8999999999999999 2496.9864000000007 4.363041504635388
0.9999999999999999 2496.0635999999977 4.312009794570122
1.0999999999999999 2494.7051999999994 4.904825202825336
1.1999999999999997 2494.0115999999994 4.074327623741794
1.2999999999999996 2492.868000000002 4.002863839667622
1.3999999999999995 2491.4964000000014 4.147721137037819
1.4999999999999993 2490.161999999999 4.532131531213126
1.5999999999999992 2488.930800000003 4.300114224336644
1.699999999999999 2487.6011999999973 4.003241749445623
1.799999999999999 2486.1300000000006 3.9227449481106818
1.8999999999999988 2484.7572000000005 4.001412183149771
1.9999999999999987 2482.9463999999966 4.092113443250618
2.0999999999999988 2481.5039999999995 3.997043952768134
2.199999999999999 2480.038799999999 4.031121990774314
2.299999999999999 2478.5520000000006 3.7646817699280537
2.399999999999999 2476.6355999999964 4.531090754269134
2.499999999999999 2474.7096 4.490540367571894
2.599999999999999 2473.0908000000027 4.682914161614002
2.6999999999999993 2471.3135999999968 4.686467541551731
2.7999999999999994 2469.4547999999977 4.857220352171557
2.8999999999999995 2467.484399999997 5.027897810854575
2.9999999999999996 2465.114399999996 5.434273085147967
3.0999999999999996 2463.381599999996 5.602686099678518
3.1999999999999997 2461.4616000000015 5.708659582969886
3.3 2459.5751999999998 6.1503896016636235
3.4 2457.7344 5.8250105053456505
3.5 2455.400399999997 6.512093918795005
3.6 2453.6495999999984 6.450558855599229
3.7 2451.075600000001 6.876520280721269
3.8000000000000003 2449.1099999999974 7.337856917666337
3.9000000000000004 2446.7291999999966 6.982141337559488
4.0 2444.6844 7.247076428240347
