# Rounds: 500, repetitions: 1000
# Good arm ~ N(5.0,0.0), 1 bad arm(s) ~ N(3.0,0.0)
# Observation noise range from 0.5 to 4.0 with step size 0.1

# Observation noise | mean | standard deviation

0.5 2499.6540000000005 4.948613217131947
0.6 2499.5460000000003 5.100185868759711
0.7 2498.899999999999 5.203179131365056
0.7999999999999999 2498.5359999999996 4.9055854664625835
0.8999999999999999 2497.850000000005 5.211973202604209
0.9999999999999999 2497.5239999999994 4.7442525156163695
1.0999999999999999 2496.8199999999993 4.7131532771398295
1.1999999999999997 2496.281999999997 4.465469338873156
1.2999999999999996 2495.3159999999984 4.814490972400259
1.3999999999999995 2494.611999999999 4.333616992332848
1.4999999999999993 2493.905999999999 4.225756857773683
1.5999999999999992 2493.022 3.991421732596992
1.699999999999999 2491.7459999999996 4.3692762071737254
1.799999999999999 2490.8759999999966 4.036944503076697
1.8999999999999988 2489.652000000001 4.298065770712396
1.9999999999999987 2488.7020000000016 4.060009812756577
2.0999999999999988 2487.5619999999985 4.108653920329273
2.199999999999999 2486.4939999999997 3.815038468812435
2.299999999999999 2485.130000000004 4.128455418694018
2.399999999999999 2483.762 4.361006119506619
2.499999999999999 2482.515999999999 4.710406769264429
2.599999999999999 2481.1680000000006 4.4307344094864805
2.6999999999999993 2479.637999999996 4.659040959539055
2.7999999999999994 2478.5500000000043 4.372255323813608
2.8999999999999995 2477.1640000000025 4.434497577941468
2.9999999999999996 2475.741999999997 4.751843433449355
3.0999999999999996 2474.154 4.911252834502054
3.1999999999999997 2472.7660000000037 4.9813711022225595
3.3 2471.0139999999997 5.134020078083293
3.4 2469.1980000000012 5.065812714506782
3.5 2467.524000000002 5.296931326861037
3.6 2466.084000000001 5.855871859529986
3.7 2464.0939999999964 5.7814002273314715
3.8000000000000003 2462.4340000000025 5.99997030356348
3.9000000000000004 2460.8899999999935 6.14211898497786
4.0 2459.2539999999967 6.400347525599541
