# Rounds: 500, repetitions: 1000
# Good arm ~ N(5.0,0.0), 1 bad arm(s) ~ N(3.7,0.0)
# Observation noise range from 0.5 to 4.0 with step size 0.1

# Observation noise | mean | standard deviation

0.5 2499.3307000000023 5.7350691825407605
0.6 2498.6339000000007 5.53753239765286
0.7 2498.362199999999 5.267034536892023
0.7999999999999999 2497.627699999998 5.0415533290812276
0.8999999999999999 2496.881499999999 4.926525997943038
0.9999999999999999 2496.0702999999985 4.576707786626129
1.0999999999999999 2495.1914999999985 4.724777377958771
1.1999999999999997 2494.330899999999 4.2720282554560995
1.2999999999999996 2493.292200000002 3.9860139823472296
1.3999999999999995 2492.1131000000023 4.260783104390908
1.4999999999999993 2490.9898999999937 4.072774912204917
1.5999999999999992 2489.5729 4.151359943365476
1.699999999999999 2488.5276999999996 3.8382984830840225
1.799999999999999 2486.8714999999984 4.424883879532591
1.8999999999999988 2485.5429 4.32432762396645
1.9999999999999987 2484.132399999998 4.1619384872883565
2.0999999999999988 2482.597099999999 4.1958248934549855
2.199999999999999 2480.9448 4.485261478501639
2.299999999999999 2479.634399999999 4.1121656759603775
2.399999999999999 2478.023700000002 4.066067044603593
2.499999999999999 2476.260900000001 4.429388295314696
2.599999999999999 2474.6528000000008 4.7243636366998425
2.6999999999999993 2472.3375000000015 4.985306111667268
2.7999999999999994 2471.112900000001 4.7409577376591585
2.8999999999999995 2469.0654000000004 5.302418172728254
2.9999999999999996 2467.392300000001 5.214612439375815
3.0999999999999996 2465.266800000004 5.544785153854252
3.1999999999999997 2463.4389999999994 5.398733677940188
3.3 2461.6970000000006 5.754683951998385
3.4 2459.578000000003 5.9822004916855684
3.5 2457.381000000001 6.413552264747909
3.6 2455.217799999998 6.66481078972714
3.7 2453.400399999999 6.479685653345117
3.8000000000000003 2451.000599999998 6.723816576123233
3.9000000000000004 2449.383400000002 6.7933905080302255
4.0 2447.358000000001 7.174640860103843
