# Rounds: 500, repetitions: 1000
# Good arm ~ N(5.0,0.0), 1 bad arm(s) ~ N(4.4,0.0)
# Observation noise range from 0.5 to 4.0 with step size 0.1

# Observation noise | mean | standard deviation

0.5 2499.363599999998 3.7571679961576825
0.6 2498.2733999999978 3.665297647783464
0.7 2497.129800000002 3.3015044891521717
0.7999999999999999 2495.8746000000015 3.060784743042768
0.8999999999999999 2494.393799999999 2.734937191498472
0.9999999999999999 2492.7803999999996 3.1844240289880483
1.0999999999999999 2491.2024000000033 2.919705279462139
1.1999999999999997 2489.470199999997 3.0710101046827147
1.2999999999999996 2487.4229999999984 3.3827317176912133
1.3999999999999995 2485.5588000000007 3.081265447305215
1.4999999999999993 2483.840400000002 2.9592575158382894
1.5999999999999992 2481.536999999999 3.3392006919713078
1.699999999999999 2479.597199999997 3.3346532161639164
1.799999999999999 2477.3766 3.639695017418395
1.8999999999999988 2475.3846000000003 3.7438775967517928
1.9999999999999987 2473.1436000000012 3.89174057263395
2.0999999999999988 2470.9991999999997 3.8791554760292706
2.199999999999999 2468.5368000000017 4.198584746539545
2.299999999999999 2466.5220000000027 4.374170706473407
2.399999999999999 2464.1418000000017 4.531117277646265
2.499999999999999 2462.010000000005 4.7173629830143815
2.599999999999999 2459.601599999998 4.993585218391113
2.6999999999999993 2456.9940000000042 5.212109946086247
2.7999999999999994 2454.6905999999994 5.4485372530798655
2.8999999999999995 2452.2912 5.56834347081875
2.9999999999999996 2450.294999999999 5.753068119950774
3.0999999999999996 2447.5734000000034 6.0923664835078934
3.1999999999999997 2445.3666000000044 6.284305604992348
3.3 2443.0728000000017 6.775713279829059
3.4 2440.5210000000047 6.700780511213644
3.5 2438.295600000002 7.1700509252216165
3.6 2436.702000000004 7.040759070461727
3.7 2433.5502000000074 7.665204192669379
3.8000000000000003 2432.244600000002 7.8275539884079945
3.9000000000000004 2429.7209999999977 7.63865878987329
4.0 2427.169200000001 7.978359830540772
