# Rounds: 500, repetitions: 1000
# Good arm ~ N(5.0,0.0), 1 bad arm(s) ~ N(1.1,0.0)
# Observation noise range from 0.5 to 4.0 with step size 0.1

# Observation noise | mean | standard deviation

0.5 2499.3138000000017 3.619017386922416
0.6 2499.4619999999964 3.360212348502216
0.7 2499.4541999999983 3.2457013012501
0.7999999999999999 2499.2475 3.646550572949847
0.8999999999999999 2499.0173999999984 3.744336696572177
0.9999999999999999 2498.9822999999983 3.601970419215072
1.0999999999999999 2498.7483000000034 3.9511781684604754
1.1999999999999997 2498.268599999998 4.1163720141112385
1.2999999999999996 2497.5120000000034 4.042994162968981
1.3999999999999995 2496.965999999996 3.673641196366253
1.4999999999999993 2496.310799999999 3.5031093524374235
1.5999999999999992 2495.4995999999987 3.701518753306591
1.699999999999999 2495.0666999999994 3.567226684164548
1.799999999999999 2494.598700000001 3.618754439540361
1.8999999999999988 2493.752399999998 3.9456891289991582
1.9999999999999987 2493.042600000002 3.8422712408532322
2.0999999999999988 2492.1377999999963 4.0946253939911506
2.199999999999999 2491.0457999999985 3.948335308926019
2.299999999999999 2490.6987000000017 3.49461308740052
2.399999999999999 2489.5482000000025 3.9147211652686265
2.499999999999999 2488.4952000000003 4.296004261242425
2.599999999999999 2487.8867999999984 3.7455807473789346
2.6999999999999993 2486.736299999999 3.871614871305249
2.7999999999999994 2485.4258999999956 4.356645446848956
2.8999999999999995 2484.7433999999957 4.002808878639979
2.9999999999999996 2483.276999999998 4.648238065882324
3.0999999999999996 2482.454100000002 4.423235037639142
3.1999999999999997 2481.092999999997 4.828182094985941
3.3 2480.0868000000005 4.726769309804348
3.4 2478.7413000000047 4.707815612132416
3.5 2477.8559999999993 4.55108738615246
3.6 2476.756199999999 4.857006492899899
3.7 2475.1338000000005 5.02888130772709
3.8000000000000003 2473.8662999999974 5.183446964369567
3.9000000000000004 2472.5715000000046 5.437275210223553
4.0 2471.315700000001 5.539164725466824
