# Rounds: 500, repetitions: 1000
# Good arm ~ N(5.0,0.0), 1 bad arm(s) ~ N(2.7,0.0)
# Observation noise range from 0.5 to 4.0 with step size 0.1

# Observation noise | mean | standard deviation

0.5 2499.3925999999974 5.0647049742779675
0.6 2499.583500000001 4.866798071984558
0.7 2499.438599999999 5.004289455352549
0.7999999999999999 2498.9027000000024 4.9606744502134745
0.8999999999999999 2498.576099999998 4.2206839449268205
0.9999999999999999 2498.0080000000016 4.564406840960852
1.0999999999999999 2497.3731999999977 4.750716900749961
1.1999999999999997 2496.614200000004 4.497960650118053
1.2999999999999996 2496.032299999999 4.423239962037097
1.3999999999999995 2495.4871999999973 3.7044269379944543
1.4999999999999993 2494.581000000003 3.963794983430748
1.5999999999999992 2493.861099999994 3.756131695683166
1.699999999999999 2492.607600000003 4.0551580174571376
1.799999999999999 2491.919900000001 4.169486612115307
1.8999999999999988 2490.8940999999963 3.931744371624855
1.9999999999999987 2490.1534999999994 3.828478156525759
2.0999999999999988 2488.8332999999966 4.046466978118652
2.199999999999999 2487.6074 3.9376961145688085
2.299999999999999 2486.8345999999988 3.765456347044962
2.399999999999999 2485.569599999998 4.603047238936825
2.499999999999999 2484.1804 4.645416637475681
2.599999999999999 2482.703799999994 4.4420938483735295
2.6999999999999993 2481.903400000004 4.193045440973726
2.7999999999999994 2480.438300000001 4.401133158981143
2.8999999999999995 2478.9478999999974 4.47635715324003
2.9999999999999996 2477.7818000000025 4.600255548457162
3.0999999999999996 2476.4294 4.5513459976571955
3.1999999999999997 2474.7711000000036 4.930347159492217
3.3 2473.1013000000044 5.200722625349852
3.4 2472.1214999999997 5.146545898433697
3.5 2470.2906999999996 5.461401873184269
3.6 2469.0302999999994 5.75778985844864
3.7 2467.328300000001 5.775548984821802
3.8000000000000003 2466.0012000000006 5.716896138768114
3.9000000000000004 2464.1014000000023 6.143028148627903
4.0 2462.3787 5.847386445091354
