# Rounds: 10000, repetitions: 1000
# Good arm ~ N(5.0,0.0), 1 bad arm(s) ~ N(3.1,0.0)
# Observation noise range from 0.5 to 4.0 with step size 0.1

# Observation noise | mean | standard deviation

0.5 49999.157499999994 5.320412628784873
0.6 49998.1809 5.487159019392031
0.7 49998.22270000004 4.59130207727171
0.7999999999999999 49997.394299999985 4.005998693901508
0.8999999999999999 49996.37210000001 4.304853464795056
0.9999999999999999 49995.30049999998 4.154338488649858
1.0999999999999999 49994.16810000006 4.204325003938123
1.1999999999999997 49993.106 3.415580505593503
1.2999999999999996 49991.610699999976 3.3419940805501454
1.3999999999999995 49990.240800000014 2.7165483605104757
1.4999999999999993 49988.58209999999 2.4989506486411783
1.5999999999999992 49986.81890000001 2.566803707195902
1.699999999999999 49985.036700000004 2.9215027448712787
1.799999999999999 49983.11389999995 2.5072660754644964
1.8999999999999988 49981.13599999995 2.448023042542476
1.9999999999999987 49979.16380000003 2.714033075615717
2.0999999999999988 49976.80210000002 2.375594460138587
2.199999999999999 49974.807099999955 2.652571530746962
2.299999999999999 49972.54040000001 2.7223738095941057
2.399999999999999 49970.117900000034 2.6817011599197764
2.499999999999999 49967.81129999997 2.5720298691211436
2.599999999999999 49965.21399999999 2.668382330976708
2.6999999999999993 49962.71549999997 2.715084056053557
2.7999999999999994 49960.184699999976 2.8108569559535517
2.8999999999999995 49957.45439999998 2.998097601685946
2.9999999999999996 49954.706999999995 2.884876689482213
3.0999999999999996 49951.79999999995 3.065190923156702
3.1999999999999997 49949.14950000012 3.2787818103934967
3.3 49946.12469999999 3.4126332905813306
3.4 49943.13219999999 3.420737435789657
3.5 49940.33540000006 3.445309419632382
3.6 49937.13770000004 3.660952236958246
3.7 49933.87540000003 3.6800186653584106
3.8000000000000003 49930.928499999995 3.814604692359357
3.9000000000000004 49927.59019999994 3.8880999577290742
4.0 49924.396300000015 4.085970075939444
