# Rounds: 10000, repetitions: 1000
# Good arm ~ N(5.0,0.0), 1 bad arm(s) ~ N(0.7,0.0)
# Observation noise range from 0.5 to 4.0 with step size 0.1

# Observation noise | mean | standard deviation

0.5 49999.431499999955 2.8341189071690924
0.6 49999.3326 3.0264528175158487
0.7 49999.354099999975 2.9589015340631057
0.7999999999999999 49999.11330000001 3.3347614223112374
0.8999999999999999 49999.02299999996 3.446826310042771
0.9999999999999999 49998.73060000002 3.2996016442901217
1.0999999999999999 49997.965200000006 3.7591648381350353
1.1999999999999997 49996.63219999995 3.087626369331637
1.2999999999999996 49995.78940000001 2.4482077855773072
1.3999999999999995 49995.402399999955 2.755312320951618
1.4999999999999993 49994.86489999998 3.0407143788813196
1.5999999999999992 49993.89310000003 2.9466158444793398
1.699999999999999 49992.56440000004 3.07336268575641
1.799999999999999 49991.515200000016 2.629258823692082
1.8999999999999988 49990.715400000016 2.4725809383100468
1.9999999999999987 49989.39530000001 2.9724069561735345
2.0999999999999988 49988.3719 2.812274751740407
2.199999999999999 49986.99589999999 2.827764035318632
2.299999999999999 49985.60269999998 2.9047616684260795
2.399999999999999 49984.3385 2.6484452065353903
2.499999999999999 49982.794799999974 2.9403058273530998
2.599999999999999 49981.48329999999 2.8956996022021153
2.6999999999999993 49980.171800000026 3.032708703797364
2.7999999999999994 49978.58080000001 3.0761557330694655
2.8999999999999995 49976.964 3.0891725408246034
2.9999999999999996 49975.30420000006 3.262733177534015
3.0999999999999996 49973.726100000014 3.2720995439348295
3.1999999999999997 49972.27699999998 3.53693382761047
3.3 49970.483899999956 3.344271960373943
3.4 49968.51880000004 3.588479307972768
3.5 49967.061100000006 3.5415645510813123
3.6 49965.070200000046 3.7262792591438707
3.7 49962.98900000005 3.758170145543306
3.8000000000000003 49961.12280000004 3.9859010985697223
3.9000000000000004 49959.192099999986 3.949063520976111
4.0 49957.171100000014 4.112710685081774
