# Rounds: 10000, repetitions: 1000
# Good arm ~ N(5.0,0.0), 1 bad arm(s) ~ N(1.8,0.0)
# Observation noise range from 0.5 to 4.0 with step size 0.1

# Observation noise | mean | standard deviation

0.5 49999.38079999997 4.355194493830306
0.6 49999.41919999997 3.9762598006180054
0.7 49999.30080000005 4.332275149154072
0.7999999999999999 49998.859199999984 4.228585614162872
0.8999999999999999 49998.01760000001 3.5836144508774095
0.9999999999999999 49997.24000000001 3.379737064125021
1.0999999999999999 49997.12479999998 3.153989951253725
1.1999999999999997 49996.12640000006 3.5873237840943832
1.2999999999999996 49994.98079999996 3.156199130750691
1.3999999999999995 49994.075200000014 3.014616538280229
1.4999999999999993 49993.15999999998 2.92030960827968
1.5999999999999992 49991.844799999984 3.237702221587966
1.699999999999999 49990.7248 2.777246488530284
1.799999999999999 49989.50880000008 2.6627603821684307
1.8999999999999988 49988.30559999993 2.636049581740025
1.9999999999999987 49986.92960000002 2.6602030976066695
2.0999999999999988 49985.33919999996 2.7190322720584406
2.199999999999999 49983.7072 2.7916126631866365
2.299999999999999 49982.15200000003 2.7174032237202477
2.399999999999999 49980.71840000004 2.6522246767081947
2.499999999999999 49978.96799999998 2.8144514806861802
2.599999999999999 49977.246399999916 2.8349469067269113
2.6999999999999993 49975.56320000003 2.901645275580649
2.7999999999999994 49973.8128 2.926417618876741
2.8999999999999995 49971.85120000001 3.0643839526077903
2.9999999999999996 49969.880000000005 3.0040079999988913
3.0999999999999996 49967.995200000005 3.1725008623672326
3.1999999999999997 49966.01759999999 3.2976119366123338
3.3 49963.944000000054 3.3808362950690776
3.4 49961.85120000006 3.4508211670159623
3.5 49959.75199999994 3.582933632291723
3.6 49957.57280000003 3.6601443710332537
3.7 49955.531200000005 3.9215615773811647
3.8000000000000003 49953.07999999997 3.7968007184584294
3.9000000000000004 49950.80800000002 3.981812505735137
4.0 49948.39200000005 3.9000444031252064
