# Rounds: 10000, repetitions: 1000
# Good arm ~ N(5.0,0.0), 1 bad arm(s) ~ N(3.7,0.0)
# Observation noise range from 0.5 to 4.0 with step size 0.1

# Observation noise | mean | standard deviation

0.5 49998.822400000005 5.477653048790736
0.6 49997.78759999999 5.0824814665532045
0.7 49997.057 4.66639971351471
0.7999999999999999 49995.886999999995 4.266827488522738
0.8999999999999999 49994.557099999976 3.988548371037297
0.9999999999999999 49993.0998 3.485715159070512
1.0999999999999999 49991.46049999999 3.5215637380520906
1.1999999999999997 49989.74059999996 2.8924068969730388
1.2999999999999996 49987.77369999994 2.5267454863422727
1.3999999999999995 49985.687200000015 2.6036618857329445
1.4999999999999993 49983.48760000006 2.616763973631357
1.5999999999999992 49981.125499999966 2.5166074511258647
1.699999999999999 49978.70229999999 2.0559162194761407
1.799999999999999 49976.03729999996 2.6243372222061243
1.8999999999999988 49973.44510000001 2.403379333818118
1.9999999999999987 49970.71639999999 2.2269688885193344
2.0999999999999988 49968.02930000001 2.374988859360098
2.199999999999999 49964.83000000003 2.5207129931823977
2.299999999999999 49962.01809999994 2.4516592387661604
2.399999999999999 49958.842199999985 2.3883725596078103
2.499999999999999 49955.71309999988 2.544569359091768
2.599999999999999 49952.38120000004 2.605662302763163
2.6999999999999993 49948.845199999974 2.78095499256583
2.7999999999999994 49945.488599999975 2.775819737523077
2.8999999999999995 49942.117699999995 2.868327738250952
2.9999999999999996 49938.43869999999 2.789159680213294
3.0999999999999996 49934.81429999999 3.059952421006433
3.1999999999999997 49930.840199999875 3.12477970555027
3.3 49927.25609999992 3.325748546327649
3.4 49923.3756 3.3684226146550564
3.5 49919.44050000005 3.406804377429776
3.6 49915.520999999986 3.5560602588499157
3.7 49911.384399999966 3.7231006054265596
3.8000000000000003 49907.058000000005 3.8276267747438175
3.9000000000000004 49902.92920000005 3.8988598934151857
4.0 49898.76009999998 4.02745557249244
