# Rounds: 10000, repetitions: 1000
# Good arm ~ N(5.0,0.0), 1 bad arm(s) ~ N(4.4,0.0)
# Observation noise range from 0.5 to 4.0 with step size 0.1

# Observation noise | mean | standard deviation

0.5 49997.87679999989 3.1512969445029997
0.6 49995.96219999999 2.8034104712428642
0.7 49993.8754 2.276105334886218
0.7999999999999999 49991.39860000005 1.8714968716353066
0.8999999999999999 49988.69139999996 1.4534505696989433
0.9999999999999999 49985.565999999984 1.7439625584871565
1.0999999999999999 49982.37880000006 1.5061670223112977
1.1999999999999997 49978.8838 1.6927264642821842
1.2999999999999996 49975.23579999999 1.7444430175385803
1.3999999999999995 49971.329199999986 1.4551648926707497
1.4999999999999993 49967.392 1.572924057316549
1.5999999999999992 49963.14220000004 1.6864944184364568
1.699999999999999 49958.70460000007 1.724619712617076
1.799999999999999 49954.16020000005 1.8996169362523363
1.8999999999999988 49949.5708 1.9149554601627214
1.9999999999999987 49944.69040000004 1.9214994145177886
2.0999999999999988 49939.742799999985 2.157689454896864
2.199999999999999 49934.715400000045 2.2257395976950347
2.299999999999999 49929.46480000007 2.2366590271188818
2.399999999999999 49923.97720000003 2.4515893723126916
2.499999999999999 49918.606600000014 2.6338666810751996
2.599999999999999 49913.01880000001 2.7675595650195994
2.6999999999999993 49907.27320000006 2.672726178494813
2.7999999999999994 49901.3992 2.818841113863584
2.8999999999999995 49895.37580000002 3.0100822173050963
2.9999999999999996 49889.25640000005 2.9530356346378395
3.0999999999999996 49882.92580000013 3.220214922039713
3.1999999999999997 49876.88560000009 3.400870264879077
3.3 49870.33480000008 3.5190414337705325
3.4 49863.658600000075 3.4850123889776046
3.5 49857.37900000009 3.634656755417917
3.6 49850.80300000008 3.8290014693430754
3.7 49843.89220000003 4.050751504070464
3.8000000000000003 49837.11400000008 4.10703198328007
3.9000000000000004 49829.9164000001 4.23287706982664
4.0 49823.111800000115 4.037811868408701
