# Rounds: 10000, repetitions: 1000
# Good arm ~ N(5.0,0.0), 1 bad arm(s) ~ N(0.5,0.0)
# Observation noise range from 0.5 to 4.0 with step size 0.1

# Observation noise | mean | standard deviation

0.5 49999.28050000001 2.7591089924887635
0.6 49999.1005 3.0278404131604497
0.7 49998.911499999995 3.172062377969556
0.7999999999999999 49999.12750000002 2.9659383912247224
0.8999999999999999 49999.04199999999 3.1160786167787626
0.9999999999999999 49998.645999999964 3.522867382487518
1.0999999999999999 49998.299500000016 3.2524803425045565
1.1999999999999997 49997.19250000001 3.2677012748447103
1.2999999999999996 49995.766000000025 2.8235113274460857
1.3999999999999995 49995.064000000035 2.7190618413889025
1.4999999999999993 49994.80300000001 2.97708818378865
1.5999999999999992 49994.060500000014 3.142684555633321
1.699999999999999 49993.10199999998 3.110348898479103
1.799999999999999 49991.80599999998 2.6839462676379533
1.8999999999999988 49990.75749999999 2.9856922326502584
1.9999999999999987 49989.911499999995 2.6190221509233402
2.0999999999999988 49988.71450000002 2.715716271053543
2.199999999999999 49987.297000000035 2.9784496239087277
2.299999999999999 49986.05950000001 2.6533469430136987
2.399999999999999 49984.826499999996 2.944455394052961
2.499999999999999 49983.53949999997 2.888604123756644
2.599999999999999 49981.95549999998 3.2911398255545463
2.6999999999999993 49980.66849999998 2.830878242104699
2.7999999999999994 49979.27349999994 3.0895781659060164
2.8999999999999995 49977.63100000005 3.084210004417885
2.9999999999999996 49976.01099999996 3.3042846876891914
3.0999999999999996 49974.625000000015 3.232541465213451
3.1999999999999997 49972.96000000002 3.367973165457704
3.3 49971.1285 3.7863669030251756
3.4 49969.23399999994 3.5544870766930865
3.5 49967.640999999996 3.703894955022044
3.6 49965.86350000007 3.802180206713509
3.7 49964.15800000004 3.6858678247628367
3.8000000000000003 49962.110499999995 4.044613535141365
3.9000000000000004 49960.21600000003 4.1744784429040465
4.0 49958.31250000002 4.224386250000077
