# Rounds: 10000, repetitions: 1000
# Good arm ~ N(5.0,0.0), 1 bad arm(s) ~ N(4.8,0.0)
# Observation noise range from 0.5 to 4.0 with step size 0.1

# Observation noise | mean | standard deviation

0.5 49991.77720000003 0.5737328030777692
0.6 49987.12239999999 0.6041384139593321
0.7 49981.98020000007 0.7258200705222047
0.7999999999999999 49976.46460000005 0.7918673461448865
0.8999999999999999 49970.403399999996 0.907596921638957
0.9999999999999999 49964.02679999999 1.0248571081309057
1.0999999999999999 49957.26480000009 1.1271341496849938
1.1999999999999997 49950.169800000025 1.179270384021989
1.2999999999999996 49942.92999999999 1.3186503853685374
1.3999999999999995 49935.19200000006 1.4558212168415294
1.4999999999999993 49927.324000000044 1.5353505467130188
1.5999999999999992 49919.13660000007 1.5974016815188965
1.699999999999999 49910.67300000014 1.7369997605517478
1.799999999999999 49902.170400000075 1.8825375926588508
1.8999999999999988 49893.39780000004 1.956799484926713
1.9999999999999987 49884.33260000003 2.1521824107429928
2.0999999999999988 49875.13540000006 2.2033069240080483
2.199999999999999 49865.91940000003 2.3176097503534345
2.299999999999999 49856.432800000046 2.4627849011738916
2.399999999999999 49846.99860000005 2.596933210939047
2.499999999999999 49837.17800000005 2.708426032135192
2.599999999999999 49827.29080000012 2.966168153271393
2.6999999999999993 49817.50560000008 2.9863836202158622
2.7999999999999994 49807.74640000015 3.035341881947522
2.8999999999999995 49797.555600000145 3.349586298088208
2.9999999999999996 49787.37760000014 3.410444160126608
3.0999999999999996 49777.27080000012 3.716751485043817
3.1999999999999997 49766.822800000176 3.6957839464663675
3.3 49756.9700000002 3.8961879164449638
3.4 49746.64380000016 4.048351604131684
3.5 49736.177200000195 4.211443507443448
3.6 49725.84100000019 4.218150280843681
3.7 49715.78140000022 4.515662215579313
3.8000000000000003 49705.41200000021 4.711931482763952
3.9000000000000004 49694.94740000022 4.586212662592667
4.0 49684.60460000023 4.84928184109249
