# Rounds: 10000, repetitions: 1000
# Good arm ~ N(5.0,0.0), 1 bad arm(s) ~ N(3.2,0.0)
# Observation noise range from 0.5 to 4.0 with step size 0.1

# Observation noise | mean | standard deviation

0.5 49999.21480000004 4.759356304420752
0.6 49998.718 4.705109356227421
0.7 49998.20320000003 4.35424266540024
0.7999999999999999 49997.38059999999 4.19447938334395
0.8999999999999999 49996.08280000002 4.712680077568987
0.9999999999999999 49995.35559999998 4.058958460465897
1.0999999999999999 49993.777000000024 3.8716328003234053
1.1999999999999997 49992.671799999946 3.51807640929211
1.2999999999999996 49991.175999999956 2.957866287202601
1.3999999999999995 49989.489400000035 3.1504496461575133
1.4999999999999993 49987.88739999998 3.0069923916177985
1.5999999999999992 49986.08019999991 2.7144532075945342
1.699999999999999 49984.23879999999 2.6152426377020555
1.799999999999999 49982.28940000003 2.51759924252096
1.8999999999999988 49980.03400000001 2.9837940657875226
1.9999999999999987 49978.04500000004 2.3037278837066264
2.0999999999999988 49975.723000000035 2.5320272830611863
2.199999999999999 49973.51799999999 2.5327476800525273
2.299999999999999 49971.100599999976 2.7199628375843545
2.399999999999999 49968.69759999991 2.639272627070868
2.499999999999999 49966.215399999935 2.583392489878407
2.599999999999999 49963.75119999995 2.594137256991166
2.6999999999999993 49960.74340000003 2.7302693659812967
2.7999999999999994 49958.34219999996 2.834207453927634
2.8999999999999995 49955.464 3.048579642692874
2.9999999999999996 49952.672200000015 3.057269051630434
3.0999999999999996 49949.89119999998 3.1007639860694844
3.1999999999999997 49946.81499999999 3.213169690424639
3.3 49943.877400000056 3.414666775718507
3.4 49940.81740000001 3.430869876302038
3.5 49937.63859999998 3.571995127263915
3.6 49934.425599999966 3.584984903282478
3.7 49931.16760000003 3.7160030838156413
3.8000000000000003 49927.91139999992 3.884718919186924
3.9000000000000004 49924.73979999993 3.7947669515036417
4.0 49921.31080000011 4.171705464974443
