# Rounds: 10000, repetitions: 1000
# Good arm ~ N(5.0,0.0), 1 bad arm(s) ~ N(3.9,0.0)
# Observation noise range from 0.5 to 4.0 with step size 0.1

# Observation noise | mean | standard deviation

0.5 49998.52650000003 5.11983989110077
0.6 49998.00179999998 4.181940385202131
0.7 49996.59159999997 4.762378574797692
0.7999999999999999 49995.38049999999 3.453690450479161
0.8999999999999999 49993.639200000034 3.6763022942296013
0.9999999999999999 49991.74059999995 4.51025432032782
1.0999999999999999 49990.01910000003 2.8786997241991865
1.1999999999999997 49987.95660000006 2.0624573135388533
1.2999999999999996 49985.533299999996 2.760427697127781
1.3999999999999995 49983.33 2.3788187780447725
1.4999999999999993 49980.70430000005 2.5003165985712035
1.5999999999999992 49978.09620000002 2.033558683913334
1.699999999999999 49975.28679999997 2.1800500862080745
1.799999999999999 49972.25959999997 2.3466005996700154
1.8999999999999988 49969.416099999995 2.040979271424029
1.9999999999999987 49966.272300000026 2.0905102111539247
2.0999999999999988 49963.01959999997 2.2755337602171957
2.199999999999999 49959.6239 2.255993860428454
2.299999999999999 49956.041200000014 2.3403033093116203
2.399999999999999 49952.71149999999 2.5367090181245278
2.499999999999999 49949.10900000006 2.55742437217844
2.599999999999999 49945.4372 2.6445509656273245
2.6999999999999993 49941.54980000009 2.703610450760317
2.7999999999999994 49937.62280000011 2.8278997820232914
2.8999999999999995 49933.692500000005 2.8644718446754736
2.9999999999999996 49929.70720000005 2.981515989825573
3.0999999999999996 49925.42820000003 3.0054812722206647
3.1999999999999997 49921.32520000006 3.1475310819589346
3.3 49916.98900000004 3.3049329163490224
3.4 49912.67149999997 3.331738019144742
3.5 49908.42660000006 3.5110083479829433
3.6 49903.84510000001 3.561997166449915
3.7 49899.123900000035 3.7074011940438125
3.8000000000000003 49894.59410000001 3.812869413335253
3.9000000000000004 49889.857500000064 3.913284751654929
4.0 49884.789800000006 4.023031287564633
