# Rounds: 10000, repetitions: 1000
# Good arm ~ N(5.0,0.0), 1 bad arm(s) ~ N(4.5,0.0)
# Observation noise range from 0.5 to 4.0 with step size 0.1

# Observation noise | mean | standard deviation

0.5 49997.37649999998 2.41512537574771
0.6 49995.12800000003 2.1828607103708877
0.7 49992.5509999999 1.866516242330318
0.7999999999999999 49989.66999999997 1.3449568427681753
0.8999999999999999 49986.32899999999 1.754091170901863
0.9999999999999999 49982.88649999995 1.5782454209053198
1.0999999999999999 49979.15649999998 1.3583456308513193
1.1999999999999997 49975.1485 1.9371242087693166
1.2999999999999996 49971.10950000003 1.3200387313455215
1.3999999999999995 49966.75300000001 1.400518636952922
1.4999999999999993 49962.16150000006 1.473716251382743
1.5999999999999992 49957.47900000003 1.6026938658482486
1.699999999999999 49952.518500000006 1.7354883087101733
1.799999999999999 49947.289999999986 1.8549503607484361
1.8999999999999988 49942.05249999997 1.924759322213683
1.9999999999999987 49936.59700000001 1.9716689576291593
2.0999999999999988 49931.075999999994 2.0377380539157626
2.199999999999999 49925.340000000004 2.257431282674172
2.299999999999999 49919.356000000014 2.257511984544121
2.399999999999999 49913.38250000003 2.419669098977927
2.499999999999999 49907.16499999997 2.650622719437988
2.599999999999999 49900.963499999976 2.697905937286627
2.6999999999999993 49894.59449999997 2.7682093007453012
2.7999999999999994 49887.933000000005 2.807025185207686
2.8999999999999995 49881.37850000002 3.1273420052847114
2.9999999999999996 49874.280999999966 3.0554663923654726
3.0999999999999996 49867.460499999965 3.085078193086416
3.1999999999999997 49860.612500000054 3.407301491422977
3.3 49853.56050000006 3.419544272711377
3.4 49846.33249999996 3.685549759130533
3.5 49838.82099999993 3.6990731463627378
3.6 49831.29800000005 3.9045411307145184
3.7 49823.87900000003 3.8933940871066897
3.8000000000000003 49816.22899999993 4.111564661289451
3.9000000000000004 49808.15999999998 4.366401890053775
4.0 49800.631499999945 4.444627370484766
