# Rounds: 10000, repetitions: 1000
# Good arm ~ N(5.0,0.0), 4 bad arm(s) ~ N(0.4,0.0)
# Observation noise range from 0.5 to 4.0 with step size 0.1

# Observation noise | mean | standard deviation

0.5 49985.8088 2.3755011188300363
0.6 49985.4638 2.9967699595040336
0.7 49985.37180000003 3.2206610218110385
0.7999999999999999 49985.38559999999 3.1762684586346124
0.8999999999999999 49985.21079999999 3.4709899353248352
0.9999999999999999 49984.76459999997 3.8555066815874866
1.0999999999999999 49983.757199999985 4.356598226609914
1.1999999999999997 49980.18300000002 5.33743001444967
1.2999999999999996 49974.41920000003 4.844665328186812
1.3999999999999995 49969.667399999984 3.2256816740442877
1.4999999999999993 49967.38119999998 2.505259045065192
1.5999999999999992 49965.706800000014 3.541787404406055
1.699999999999999 49962.95599999998 4.234117588322222
1.799999999999999 49958.21339999992 4.786745593131561
1.8999999999999988 49953.64100000001 4.277356049567055
1.9999999999999987 49949.2388 4.088325937222444
2.0999999999999988 49945.43920000002 4.563701428745239
2.199999999999999 49940.78400000003 4.880176238632763
2.299999999999999 49936.27139999998 5.1197767679992285
2.399999999999999 49931.12400000006 5.375835154056555
2.499999999999999 49926.367599999925 5.377340051179138
2.599999999999999 49921.602 5.3890182331765795
2.6999999999999993 49916.18319999993 5.494184545846243
2.7999999999999994 49910.89320000006 5.876250852718337
2.8999999999999995 49904.86259999997 5.9039459531572565
2.9999999999999996 49899.370199999954 6.27270426361404
3.0999999999999996 49893.58340000003 6.420431947024532
3.1999999999999997 49887.608000000015 6.630509758656887
3.3 49881.73840000005 6.615773113845317
3.4 49875.16499999999 7.028688174719192
3.5 49869.11599999995 6.89485627428357
3.6 49862.464400000026 7.2911325082759015
3.7 49855.91400000002 7.357783700338144
3.8000000000000003 49849.98919999995 7.9004189749628715
3.9000000000000004 49842.40380000001 8.014602885945077
4.0 49835.73379999998 7.801941287130272
