# Rounds: 10000, repetitions: 1000
# Good arm ~ N(5.0,0.0), 4 bad arm(s) ~ N(4.5,0.0)
# Observation noise range from 0.5 to 4.0 with step size 0.1

# Observation noise | mean | standard deviation

0.5 49979.52800000001 1.3943314384177743
0.6 49970.67649999998 1.2914199609404924
0.7 49960.78950000003 1.5022304904529316
0.7999999999999999 49949.93300000006 1.5530366779065186
0.8999999999999999 49938.198500000035 1.7786262286555026
0.9999999999999999 49925.571999999964 2.0151617495568024
1.0999999999999999 49912.24100000004 2.045018606541525
1.1999999999999997 49898.24999999998 2.3797401461426757
1.2999999999999996 49883.53699999999 2.551595900929803
1.3999999999999995 49868.36000000002 2.7768887466211734
1.4999999999999993 49852.42900000003 2.965257451175451
1.5999999999999992 49836.03950000003 3.1041626206717523
1.699999999999999 49819.172999999966 3.2352028587922392
1.799999999999999 49801.5035 3.409598673321121
1.8999999999999988 49783.98350000004 3.7170949065829304
1.9999999999999987 49765.57749999994 3.8748881930332293
2.0999999999999988 49746.664000000004 4.108403945936042
2.199999999999999 49727.59250000001 4.244963305314141
2.299999999999999 49708.21499999999 4.4366043838117974
2.399999999999999 49688.15849999999 4.782101655783422
2.499999999999999 49668.2995 5.064899105900685
2.599999999999999 49647.56150000001 5.15878675958128
2.6999999999999993 49626.98849999997 5.262443449678172
2.7999999999999994 49606.19050000001 5.564568642237647
2.8999999999999995 49584.73050000004 5.729524168480103
2.9999999999999996 49563.39499999996 5.8276012162754665
3.0999999999999996 49541.6155 6.0711834940988805
3.1999999999999997 49519.31549999997 6.321405691768265
3.3 49497.38450000004 6.743877937777359
3.4 49475.683999999994 6.409190410786802
3.5 49453.118500000055 6.964460600898006
3.6 49430.13950000002 6.995514775695688
3.7 49407.49899999996 7.468619636805687
3.8000000000000003 49385.091500000024 7.460230075727129
3.9000000000000004 49361.399000000034 7.852799848809606
4.0 49338.868500000055 7.671134469819516
