# Rounds: 10000, repetitions: 1000
# Good arm ~ N(5.0,0.0), 4 bad arm(s) ~ N(3.1,0.0)
# Observation noise range from 0.5 to 4.0 with step size 0.1

# Observation noise | mean | standard deviation

0.5 49992.25669999994 5.39185192463393
0.6 49988.1736 4.339526994331534
0.7 49986.22230000007 4.482097936448733
0.7999999999999999 49982.226599999995 3.4812859393896787
0.8999999999999999 49978.22140000001 4.095286731526137
0.9999999999999999 49973.67470000004 3.5835976451164435
1.0999999999999999 49969.21920000003 3.0019232007006873
1.1999999999999997 49963.85169999991 3.0268430565348683
1.2999999999999996 49958.2334 3.0551560383100878
1.3999999999999995 49952.42129999991 3.1120316597130016
1.4999999999999993 49946.03350000002 3.370517488182728
1.5999999999999992 49939.60010000003 3.33277322471462
1.699999999999999 49932.71069999998 3.391367996383865
1.799999999999999 49925.78520000002 3.773823353406451
1.8999999999999988 49918.572799999994 3.626711071095293
1.9999999999999987 49911.189399999996 4.154403291294936
2.0999999999999988 49903.26640000002 4.113291894605278
2.199999999999999 49895.25030000002 4.28487573566459
2.299999999999999 49886.9891 4.532354070837799
2.399999999999999 49878.680400000005 4.557425365925743
2.499999999999999 49870.056300000004 4.975435183507795
2.599999999999999 49861.05599999996 5.093129093591299
2.6999999999999993 49852.04809999999 5.2038847803186465
2.7999999999999994 49842.671599999965 5.531702556464586
2.8999999999999995 49833.46609999997 5.834413524185697
2.9999999999999996 49823.91669999998 5.871061272930092
3.0999999999999996 49813.540800000024 5.992119897072743
3.1999999999999997 49803.850800000015 6.305478444848783
3.3 49794.010699999926 6.2773960534001745
3.4 49783.22059999994 6.292383469700589
3.5 49772.9814999999 6.602014415644602
3.6 49762.06980000001 7.1526882295365635
3.7 49751.18849999999 7.382636458008449
3.8000000000000003 49740.67959999992 7.27459439169009
3.9000000000000004 49728.97179999996 7.533790729958575
4.0 49717.700999999965 7.7132466039418075
