# Rounds: 10000, repetitions: 1000
# Good arm ~ N(5.0,1.0), 4 bad arm(s) ~ N(4.4,1.0)
# Observation noise range from 0.5 to 4.0 with step size 0.1

# Observation noise | mean | standard deviation

0.5 49840.24652943401 795.9806484228951
0.6 49929.50037756515 319.1326460644214
0.7 49929.25298121369 237.8907870990934
0.7999999999999999 49941.55807561402 175.633447964361
0.8999999999999999 49937.662671068596 132.6389112668568
0.9999999999999999 49927.10952212364 111.75540928790055
1.0999999999999999 49920.05057800564 106.81694624149564
1.1999999999999997 49910.86027110163 106.02916526458147
1.2999999999999996 49901.248242349524 103.53429607000828
1.3999999999999995 49882.57589837668 105.37990414798641
1.4999999999999993 49867.478613996 103.85412487816606
1.5999999999999992 49853.425338359906 105.17955506255248
1.699999999999999 49845.6784581315 108.69947898544446
1.799999999999999 49821.76389161525 105.32248175928467
1.8999999999999988 49813.9267017108 108.70898631302902
1.9999999999999987 49794.96189230636 104.22813413388907
2.0999999999999988 49774.160723071655 103.30865918855564
2.199999999999999 49752.178709834356 104.36118444370422
2.299999999999999 49734.11863082124 105.05786085345022
2.399999999999999 49723.09929318166 109.75538132873375
2.499999999999999 49703.12254211281 107.79167539099062
2.599999999999999 49680.64530021525 111.07600655852579
2.6999999999999993 49662.973831100484 111.35717675732272
2.7999999999999994 49642.50589788523 114.55615649467944
2.8999999999999995 49623.270396805594 108.03685582444854
2.9999999999999996 49604.016993053 110.11636177396375
3.0999999999999996 49585.42002191374 114.26777950432086
3.1999999999999997 49567.061353739926 110.59268586752323
3.3 49548.799776698375 111.29912288987984
3.4 49531.411128911226 114.00211457754682
3.5 49508.113537456295 115.3459612813844
3.6 49484.09152482599 111.89617687543107
3.7 49462.21256928993 115.44474686355552
3.8000000000000003 49434.895625661804 114.46873253170338
3.9000000000000004 49423.31292574737 114.14796925570796
4.0 49397.466628524046 110.74246441958636
