# Rounds: 10000, repetitions: 1000
# Good arm ~ N(5.0,0.0), 4 bad arm(s) ~ N(0.2,0.0)
# Observation noise range from 0.5 to 4.0 with step size 0.1

# Observation noise | mean | standard deviation

0.5 49985.08960000008 2.2427576333180004
0.6 49985.04640000009 2.3641819719304387
0.7 49984.84479999995 2.529361704192649
0.7999999999999999 49984.84960000001 2.6600104314648445
0.8999999999999999 49984.51840000003 3.2133451459552593
0.9999999999999999 49984.23520000002 3.592902713673022
1.0999999999999999 49983.495999999985 4.113278870083325
1.1999999999999997 49981.41280000005 4.667489863045972
1.2999999999999996 49976.079999999965 5.287823851178152
1.3999999999999995 49970.54079999998 4.133858263672802
1.4999999999999993 49966.92159999997 2.8513125790451195
1.5999999999999992 49965.38560000003 2.7208520128218763
1.699999999999999 49963.22560000006 3.783826367842925
1.799999999999999 49959.601600000016 4.556555677224277
1.8999999999999988 49955.07519999998 4.893265679382284
1.9999999999999987 49950.06400000012 4.507547224598425
2.0999999999999988 49946.14719999999 4.3563872957148
2.199999999999999 49942.28320000001 4.5143700886499305
2.299999999999999 49937.71360000002 5.068015372888052
2.399999999999999 49932.55840000001 5.54991450303594
2.499999999999999 49927.98400000002 5.271661447250058
2.599999999999999 49922.81440000004 5.569784119257367
2.6999999999999993 49917.683199999985 5.650774195542165
2.7999999999999994 49912.264000000054 5.729971777992102
2.8999999999999995 49907.113599999924 6.147357566065556
2.9999999999999996 49901.17599999998 6.211828298562413
3.0999999999999996 49895.73759999995 6.211328911501055
3.1999999999999997 49889.67519999995 6.527246732728725
3.3 49883.75680000003 6.657727772980465
3.4 49877.97760000002 6.655496515954593
3.5 49871.7328 7.2551306729160885
3.6 49865.31039999997 7.383208218898853
3.7 49859.21919999994 7.373460468416085
3.8000000000000003 49852.177600000054 7.849769239737925
3.9000000000000004 49845.63039999997 8.236078486078135
4.0 49839.155199999936 7.960115350697358
