# Rounds: 10000, repetitions: 1000
# Good arm ~ N(5.0,0.0), 4 bad arm(s) ~ N(1.4,0.0)
# Observation noise range from 0.5 to 4.0 with step size 0.1

# Observation noise | mean | standard deviation

0.5 49989.00880000004 3.4932571341658427
0.6 49988.99440000001 3.5199828009402245
0.7 49988.648800000046 3.9623678424539905
0.7999999999999999 49988.24199999999 4.53308557881478
0.8999999999999999 49986.83800000001 4.436178048238131
0.9999999999999999 49982.3236 4.799458077515857
1.0999999999999999 49977.456400000054 3.6646430451889347
1.1999999999999997 49975.098400000024 2.8368936189788774
1.2999999999999996 49973.366799999945 3.450275664661199
1.3999999999999995 49969.504 4.222564866765816
1.4999999999999993 49965.01839999994 3.8671405736295856
1.5999999999999992 49960.79200000001 3.6010809188050548
1.699999999999999 49956.8896 3.696901259016599
1.799999999999999 49952.494000000006 4.060262273514333
1.8999999999999988 49947.95080000009 4.14064781457151
1.9999999999999987 49942.84240000003 4.168210193381314
2.0999999999999988 49937.831199999964 4.508782061229833
2.199999999999999 49932.625600000065 4.661771847350255
2.299999999999999 49927.21120000001 4.51352705613655
2.399999999999999 49921.84000000002 4.867098586286982
2.499999999999999 49916.00439999999 5.128184758655748
2.599999999999999 49910.006799999974 5.48282547005859
2.6999999999999993 49903.980400000066 5.534691377903036
2.7999999999999994 49898.27079999999 5.631253712839125
2.8999999999999995 49891.801599999955 5.879728620322071
2.9999999999999996 49885.12000000003 5.731279749545722
3.0999999999999996 49878.33399999997 6.047139149372745
3.1999999999999997 49872.00880000004 6.401320134116318
3.3 49864.596400000024 6.5716827414319425
3.4 49858.02999999996 6.624157264093255
3.5 49851.035199999984 6.7883932740542505
3.6 49843.8748 7.081869656934641
3.7 49835.958399999996 7.321554110608957
3.8000000000000003 49828.63240000002 7.53880254309372
3.9000000000000004 49821.194799999954 7.589253568678735
4.0 49813.505199999934 8.003581090377073
