# Rounds: 100, repetitions: 1000
# Good arm ~ N(5.0,0.0), 10 bad arm(s) ~ N(4.0,0.0)
# Observation noise range from 0.5 to 8.0 with step size 0.1

# Observation noise | mean | standard deviation

0.5 484.5480000000002 5.876753545303078
0.6 480.55300000000034 5.403553403954575
0.7 476.74500000000023 5.598152759108528
0.7999999999999999 472.88899999999956 5.289864049449815
0.8999999999999999 468.3930000000003 5.9701083066551925
0.9999999999999999 464.2709999999998 6.495055407365256
1.0999999999999999 460.9429999999996 6.196300924353596
1.1999999999999997 457.2289999999998 6.592421332031144
1.2999999999999996 454.30100000000044 6.6997974809904655
1.3999999999999995 451.0919999999999 6.885415379259628
1.4999999999999993 448.4150000000003 6.956088136457307
1.5999999999999992 445.6969999999998 7.258365854300463
1.699999999999999 443.3130000000003 7.006862859163661
1.799999999999999 441.77199999999976 6.888793179612191
1.8999999999999988 440.00499999999994 7.1002386148909435
1.9999999999999987 437.57900000000035 7.421107183691125
2.0999999999999988 435.9829999999994 7.369737039001048
2.199999999999999 434.153 7.426624115016581
2.299999999999999 433.4369999999999 7.4335246208167325
2.399999999999999 431.463 7.684379004231942
2.499999999999999 430.7879999999998 7.563349804171443
2.599999999999999 429.9250000000002 7.685599745201668
2.6999999999999993 428.54900000000043 7.360283470952228
2.7999999999999994 427.7219999999997 7.494456810395457
2.8999999999999995 426.37299999999976 7.522796252954317
2.9999999999999996 425.92199999999974 7.197062853255743
3.0999999999999996 425.3600000000004 7.32680572160078
3.1999999999999997 424.66299999999984 6.975822037085889
3.3 423.65600000000006 6.994754505384054
3.4 423.42300000000023 6.948982613257809
3.5 423.076 6.704563757260853
3.6 422.347 6.665359556544414
3.7 421.909 6.565960008317963
3.8000000000000003 421.9500000000001 6.66963147287645
3.9000000000000004 421.1460000000002 6.467341842713308
4.0 420.61900000000026 6.328814493480823
4.1 420.3860000000005 6.273464781152465
4.199999999999999 419.89299999999986 6.2994630115775845
4.299999999999999 419.5089999999997 6.242666889230098
4.399999999999999 419.04 5.852063452035247
4.499999999999998 418.612 5.790421831350895
4.599999999999998 418.4000000000004 5.726149560462839
4.6999999999999975 418.43800000000033 5.65031698952209
4.799999999999997 417.9420000000001 5.58657729256885
4.899999999999997 417.8760000000003 5.5648532407954425
4.9999999999999964 417.8379999999997 5.56783232117823
5.099999999999996 417.36600000000004 5.387677706681362
5.199999999999996 417.09700000000026 5.333482636799054
5.299999999999995 416.989 5.152419473065681
5.399999999999995 416.93199999999996 5.231323230573956
5.499999999999995 416.8620000000001 5.159610215663347
5.599999999999994 416.76799999999974 5.20377317484681
5.699999999999994 416.17400000000004 5.020650448988748
5.799999999999994 416.101 4.779083451734084
5.899999999999993 415.915 4.904674385811035
5.999999999999993 415.7259999999997 4.915799943965281
6.0999999999999925 415.97599999999983 4.665532251650521
6.199999999999992 415.97499999999985 4.748570724325787
6.299999999999992 415.66299999999956 4.5651145956340935
6.3999999999999915 415.46000000000026 4.558638084031373
6.499999999999991 415.5680000000003 4.509513467294648
6.599999999999991 415.32599999999974 4.511327529239708
6.69999999999999 415.2299999999998 4.5541014305612295
6.79999999999999 415.06299999999976 4.526092853280469
6.89999999999999 415.0829999999997 4.440250761705566
6.999999999999989 415.0420000000003 4.495825669267936
7.099999999999989 415.1489999999999 4.436945513017438
7.199999999999989 414.75200000000007 4.202160653063389
7.299999999999988 414.81100000000004 4.344439337032254
7.399999999999988 414.6249999999999 4.061141202650788
7.499999999999988 414.787 4.242597156298325
7.599999999999987 414.6569999999999 4.278043086815822
7.699999999999987 414.3339999999996 4.056957345462587
7.7999999999999865 414.2879999999995 4.037493945179035
7.899999999999986 414.5729999999998 3.998331859370561
7.999999999999986 414.1919999999995 4.0892368307372235
