# Rounds: 100, repetitions: 1000
# Good arm ~ N(5.0,1.0), 10 bad arm(s) ~ N(1.0,1.0)
# Observation noise range from 0.5 to 8.0 with step size 0.1

# Observation noise | mean | standard deviation

0.5 463.4749391770762 11.082169429016082
0.6 462.11676197602753 11.204373843509119
0.7 461.9326043666849 10.969085838007969
0.7999999999999999 461.19284140982296 11.693534167799925
0.8999999999999999 460.6510062164946 11.846806520246824
0.9999999999999999 459.9589921694308 12.272416534866457
1.0999999999999999 458.4137716287739 11.898684604296331
1.1999999999999997 456.4999204724296 12.66961259269995
1.2999999999999996 454.34646574993934 13.441735398877709
1.3999999999999995 451.9519489990719 13.753727032132439
1.4999999999999993 448.6219111801069 14.443344849242708
1.5999999999999992 445.56743510566935 14.89522723398121
1.699999999999999 441.5816327909899 15.449069230183149
1.799999999999999 437.4873219616438 16.609767849458027
1.8999999999999988 433.0998985607319 16.03925762818488
1.9999999999999987 429.7540288366767 17.985776425304593
2.0999999999999988 425.16859100673986 17.558306464632505
2.199999999999999 421.3450853584753 17.751041945032302
2.299999999999999 416.1897090720887 18.789086160708177
2.399999999999999 411.8559390573792 18.95192607178904
2.499999999999999 406.8136501057484 18.627821848130456
2.599999999999999 401.02992587618485 20.141475519066088
2.6999999999999993 396.7249941568317 20.097127911806144
2.7999999999999994 391.3981049776049 20.60736679885286
2.8999999999999995 386.1437293539623 22.28979486807144
2.9999999999999996 381.75524526392127 22.48078423175345
3.0999999999999996 375.91944736103653 22.866574886248436
3.1999999999999997 371.0625496744788 24.52294685899972
3.3 365.0344594124802 24.25953537921653
3.4 358.6630208699996 25.121692020525163
3.5 353.8255756929618 25.64441463337248
3.6 350.22831655876286 25.81678450427551
3.7 341.76706043476156 26.656597820568308
3.8000000000000003 335.5077311916386 27.212389910182495
3.9000000000000004 334.226694434651 26.459619902191122
4.0 325.1830324218713 28.569080752131566
4.1 321.3860804537504 29.43380570121903
4.199999999999999 317.0033384499605 27.774146275689578
4.299999999999999 310.6874501118048 29.401830772098755
4.399999999999999 305.73323118911986 29.902727842661783
4.499999999999998 299.85566272595975 29.64794428554939
4.599999999999998 293.6900051077888 31.25201889839823
4.6999999999999975 288.6519846209172 31.704785631085933
4.799999999999997 283.278012519184 30.457964115739998
4.899999999999997 278.36109646630604 31.189211580136018
4.9999999999999964 274.0719600398571 31.43315883944178
5.099999999999996 266.6470569529159 30.562351861347903
5.199999999999996 265.17994534817393 30.967151891026127
5.299999999999995 260.03685362027284 31.535686316802863
5.399999999999995 253.96637993389842 31.349924779385617
5.499999999999995 250.4748876523872 31.56611740832593
5.599999999999994 245.47356842844343 30.716512956785845
5.699999999999994 245.1112684650309 31.303234847418036
5.799999999999994 238.86989391017647 30.78534357781092
5.899999999999993 233.57383505548054 30.650234521597646
5.999999999999993 232.71632697885715 31.033435799183437
6.0999999999999925 228.65605657551689 30.643186968015524
6.199999999999992 224.68050117283232 30.92520066965561
6.299999999999992 221.21501658075326 30.053979526982346
6.3999999999999915 218.4301676918342 30.69181691241429
6.499999999999991 216.35885593813575 30.111223423839625
6.599999999999991 211.09821064995919 29.964889740413813
6.69999999999999 207.447424600244 29.375043138054878
6.79999999999999 206.27357444626264 28.619597976192388
6.89999999999999 203.09580138069623 29.040395355288556
6.999999999999989 201.21673387779427 28.67631649532124
7.099999999999989 199.04022874648794 27.316677363513403
7.199999999999989 197.092578998786 27.39292203847477
7.299999999999988 193.0571521725108 27.24760609616099
7.399999999999988 192.3076089611952 27.513206794467077
7.499999999999988 187.50201030416738 26.51944641492753
7.599999999999987 189.28953716911457 26.99823889343021
7.699999999999987 185.5944818474642 25.687082341291426
7.7999999999999865 183.4117116485937 25.833616591749823
7.899999999999986 183.10811625260476 25.164245193813105
7.999999999999986 182.0379446333313 24.667099826703613
