# Rounds: 100, repetitions: 1000
# Good arm ~ N(5.0,0.0), 10 bad arm(s) ~ N(0.0,0.0)
# Observation noise range from 0.5 to 8.0 with step size 0.1

# Observation noise | mean | standard deviation

0.5 454.74499999999966 1.691992268846957
0.6 454.64500000000004 1.5973498447511603
0.7 454.6099999999996 2.098166414349029
0.7999999999999999 454.375 2.6723615991322203
0.8999999999999999 454.27000000000004 2.9454669877246795
0.9999999999999999 453.9949999999997 3.1184450772299552
1.0999999999999999 453.9000000000006 3.571099655953759
1.1999999999999997 453.2800000000002 4.495754865627343
1.2999999999999996 452.93999999999994 5.072684903690803
1.3999999999999995 451.74999999999983 5.884056604258821
1.4999999999999993 450.4200000000001 6.408171709985976
1.5999999999999992 448.2299999999997 7.6403845109703425
1.699999999999999 445.1600000000002 8.697703722825334
1.799999999999999 441.86999999999955 9.754396354887763
1.8999999999999988 437.84500000000037 9.845196945866693
1.9999999999999987 432.95999999999975 11.025423346065208
2.0999999999999988 428.92000000000013 11.232086171311176
2.199999999999999 424.4549999999999 11.358124052059962
2.299999999999999 418.6050000000004 11.608778520530844
2.399999999999999 414.00499999999994 12.815975352044989
2.499999999999999 409.5649999999994 12.203880928201057
2.599999999999999 403.8 12.828662228563674
2.6999999999999993 398.27999999999986 13.404151270083164
2.7999999999999994 393.0750000000004 13.616342378912899
2.8999999999999995 387.37000000000006 14.257853498559516
2.9999999999999996 381.73 14.593494100799507
3.0999999999999996 376.6750000000003 15.145916075753707
3.1999999999999997 370.78 15.666430258263572
3.3 364.3750000000003 16.830556813208617
3.4 358.80500000000023 17.10671256012136
3.5 353.40500000000054 17.589495881501712
3.6 347.93000000000035 18.028869630127673
3.7 341.6199999999997 18.387868656092575
3.8000000000000003 335.2499999999999 18.533239894335285
3.9000000000000004 329.8300000000002 18.988988432291002
4.0 323.7099999999999 19.11416362939407
4.1 316.13000000000005 20.776302721002935
4.199999999999999 311.0249999999998 21.334937416232364
4.299999999999999 303.9349999999994 22.344799508276303
4.399999999999999 295.6050000000001 23.45973858196922
4.499999999999998 291.69499999999994 24.148190617727654
4.599999999999998 283.7300000000004 23.73922177853878
4.6999999999999975 278.81499999999994 25.235046712510368
4.799999999999997 273.29999999999995 23.753404476500464
4.899999999999997 265.605 25.684015333347734
4.9999999999999964 258.6550000000005 26.47861575105642
5.099999999999996 253.01999999999998 27.101920856539174
5.199999999999996 247.3699999999999 26.847791415755278
5.299999999999995 238.4150000000001 27.64918176460657
5.399999999999995 234.95999999999984 27.396148432744138
5.499999999999995 228.79500000000004 28.197838447177034
5.599999999999994 222.3150000000002 29.141293553821363
5.699999999999994 217.19999999999987 29.571683829036093
5.799999999999994 211.26999999999975 28.65149224749053
5.899999999999993 206.37999999999974 29.044606886463267
5.999999999999993 201.63000000000008 30.080690616206724
6.0999999999999925 195.28499999999985 30.02657773324106
6.199999999999992 189.57499999999996 29.595950657062968
6.299999999999992 185.59500000000008 30.924542071020277
6.3999999999999915 180.0699999999998 29.986568564847424
6.499999999999991 175.46000000000024 30.358854722470323
6.599999999999991 168.52500000000023 31.64254455042512
6.69999999999999 165.6600000000001 30.41199252415546
6.79999999999999 161.9800000000002 30.43116257482872
6.89999999999999 157.44500000000005 30.01245945807719
6.999999999999989 155.43000000000026 29.98189477024448
7.099999999999989 149.96500000000012 29.513468447809025
7.199999999999989 145.3450000000002 28.984410828427578
7.299999999999988 143.1550000000001 30.136841310996815
7.399999999999988 139.3400000000003 29.303977940257894
7.499999999999988 135.38500000000028 29.530472800546583
7.599999999999987 132.7999999999999 28.23751684120522
7.699999999999987 130.4749999999998 29.79911680507244
7.7999999999999865 128.06499999999994 28.46121599327438
7.899999999999986 124.17 29.227818347686586
7.999999999999986 121.35499999999992 28.61656658096636
