# Rounds: 100, repetitions: 1000
# Good arm ~ N(5.0,2.0), 10 bad arm(s) ~ N(0.0,2.0)
# Observation noise range from 0.5 to 8.0 with step size 0.1

# Observation noise | mean | standard deviation

0.5 446.76529434516226 36.539677310775396
0.6 447.09911920121823 24.503857534011654
0.7 447.2083119167333 24.08864516202227
0.7999999999999999 445.8474714962161 28.06077388303817
0.8999999999999999 445.19283871525994 31.613538089321224
0.9999999999999999 443.65289008104855 25.40842127661762
1.0999999999999999 443.1035901874545 26.242337761908964
1.1999999999999997 442.0636594529097 24.438461899138005
1.2999999999999996 440.00667616483395 28.908827998366828
1.3999999999999995 436.5870152660105 28.170821792435508
1.4999999999999993 436.3744214012047 24.790211796381854
1.5999999999999992 433.59968697742784 26.93058998680588
1.699999999999999 429.3849822975203 27.764217532093536
1.799999999999999 426.95943251570645 27.311909168329038
1.8999999999999988 424.7666219158161 27.74835184755338
1.9999999999999987 420.4216083861247 28.894435707077623
2.0999999999999988 416.93118787565254 29.169050325876555
2.199999999999999 412.10475639620483 30.849090812716078
2.299999999999999 407.37065598511253 30.042778365486605
2.399999999999999 403.5094700979067 31.75724881453027
2.499999999999999 398.4823153828658 32.95174197239471
2.599999999999999 395.92746694329446 32.490897485215385
2.6999999999999993 388.2680013168506 33.6541782192006
2.7999999999999994 382.4308814800829 33.47281422072265
2.8999999999999995 379.03313427701005 34.24055946450543
2.9999999999999996 373.56839320817414 35.39421695146097
3.0999999999999996 365.23699466337075 37.93494816592914
3.1999999999999997 360.89489074916673 37.89489605288247
3.3 354.75135127222507 37.13961235779693
3.4 349.6784318349353 39.502238854150356
3.5 344.790432010703 40.25300758168092
3.6 336.99715716337676 41.03563222996688
3.7 333.6206892013333 41.20772515542717
3.8000000000000003 325.3884410566933 40.52380340402913
3.9000000000000004 319.80271914075183 42.578047767678534
4.0 311.3371285073681 44.34827699583054
4.1 307.9253389060915 43.53429246991609
4.199999999999999 302.3657881635538 43.82910322549366
4.299999999999999 295.8431432589142 43.798158242226314
4.399999999999999 291.12667818748093 47.99267337140527
4.499999999999998 283.058186071172 45.86810635459977
4.599999999999998 276.6986594254757 46.973829778205506
4.6999999999999975 269.95684641487816 48.004139820832634
4.799999999999997 264.359793153634 46.90927596765315
4.899999999999997 259.93227724252154 46.36768574308893
4.9999999999999964 253.82777904039537 47.89548324186599
5.099999999999996 247.36047009825762 49.21458980142336
5.199999999999996 240.257263347923 49.449898022415944
5.299999999999995 236.04621852263702 48.28550812547265
5.399999999999995 225.6478382261816 50.051512105703665
5.499999999999995 224.02339502614612 50.848385223957756
5.599999999999994 216.2427126191583 49.144021332916516
5.699999999999994 213.45201421417883 47.40087223331297
5.799999999999994 204.51997625377754 49.3514291660622
5.899999999999993 200.4226204926858 48.75480762263031
5.999999999999993 196.45142990093026 47.91101842898519
6.0999999999999925 192.04079882177209 48.52648569408867
6.199999999999992 185.86301428536134 47.95937542916442
6.299999999999992 183.15579942818152 50.561296049921154
6.3999999999999915 176.80870226617438 44.713052174719444
6.499999999999991 176.53148306969578 46.53074743204983
6.599999999999991 167.06740704961686 46.8970175053732
6.69999999999999 165.74982358555204 45.743484532374055
6.79999999999999 161.74721823822892 44.8972228733359
6.89999999999999 157.9985795072157 45.981471538559
6.999999999999989 150.0149610755887 43.30495689617295
7.099999999999989 150.56332288648204 43.64357977422646
7.199999999999989 143.95743106212163 45.00672393926084
7.299999999999988 141.21537552766978 43.11825491877527
7.399999999999988 137.86155217192794 44.346568584868656
7.499999999999988 135.56601422577964 42.360639340216636
7.599999999999987 132.63788520348507 43.179605315686494
7.699999999999987 127.03016793866932 41.909869346517844
7.7999999999999865 126.6919925853731 41.37323712444473
7.899999999999986 122.55634130618279 39.708134011720276
7.999999999999986 119.93109580009555 41.59897173704319
