# Rounds: 100, repetitions: 1000
# Good arm ~ N(5.0,0.0), 10 bad arm(s) ~ N(0.5,0.0)
# Observation noise range from 0.5 to 8.0 with step size 0.1

# Observation noise | mean | standard deviation

0.5 459.4240000000001 2.472617608494667
0.6 459.2980000000001 2.6925723659626772
0.7 459.28450000000026 2.7743479876822708
0.7999999999999999 458.9784999999998 3.6947854050254203
0.8999999999999999 458.78950000000003 3.763190315590114
0.9999999999999999 458.73999999999995 3.754996671103728
1.0999999999999999 457.92100000000005 4.904264553509568
1.1999999999999997 457.15600000000023 6.027934969788559
1.2999999999999996 456.5395000000004 5.6800486531985905
1.3999999999999995 454.9239999999998 6.557875397545236
1.4999999999999993 452.7100000000001 7.719228360819911
1.5999999999999992 449.70849999999984 8.493197993816036
1.699999999999999 446.27499999999964 9.06675692191433
1.799999999999999 442.3599999999997 9.979979959899739
1.8999999999999988 437.66199999999986 10.100211397305914
1.9999999999999987 432.8334999999996 10.413379192952496
2.0999999999999988 428.82850000000013 10.280200400297147
2.199999999999999 424.1935000000002 10.590489422883929
2.299999999999999 419.2029999999996 11.548643303962685
2.399999999999999 414.4690000000001 11.756030080058643
2.499999999999999 409.40649999999994 12.280464875873715
2.599999999999999 404.13699999999983 12.675740822745043
2.6999999999999993 398.77299999999985 13.248225786364232
2.7999999999999994 393.11650000000026 13.752319951704662
2.8999999999999995 389.1700000000004 13.70519727812892
2.9999999999999996 383.85550000000046 15.168485511174211
3.0999999999999996 377.6229999999996 15.113331326474185
3.1999999999999997 372.02950000000004 16.06843409683482
3.3 366.238 16.14865737871523
3.4 361.4409999999998 16.926547994999666
3.5 354.58750000000043 17.644217527625337
3.6 349.6149999999999 18.53763520298418
3.7 342.81099999999947 18.50104233732702
3.8000000000000003 337.1545000000005 19.581223252239717
3.9000000000000004 330.31900000000013 20.09884829294211
4.0 325.50399999999985 19.608045783796456
4.1 319.68100000000015 20.678463140132937
4.199999999999999 313.2594999999999 22.374931224414908
4.299999999999999 307.7695 21.17961746458008
4.399999999999999 300.18699999999984 23.21512379835553
4.499999999999998 296.2675000000005 22.245303938074166
4.599999999999998 290.7550000000001 23.564417174136857
4.6999999999999975 281.7684999999998 24.11482287789882
4.799999999999997 277.54749999999996 24.481643012563385
4.899999999999997 272.665 25.568310728585768
4.9999999999999964 265.44250000000056 26.129268693027612
5.099999999999996 260.7175000000001 25.994714249610794
5.199999999999996 255.41200000000006 26.34363762359411
5.299999999999995 249.36850000000007 26.93074865229287
5.399999999999995 244.52650000000003 26.840108777521543
5.499999999999995 238.00149999999996 27.4733695382236
5.599999999999994 233.75350000000023 27.462359128795136
5.699999999999994 227.71899999999997 29.040771432684203
5.799999999999994 224.67700000000016 27.920336964589392
5.899999999999993 218.36350000000004 27.08888934001679
5.999999999999993 216.77500000000003 27.988474944693433
6.0999999999999925 209.29149999999987 28.80689353027963
6.199999999999992 206.32599999999985 28.398330746527826
6.299999999999992 201.11500000000007 28.74083872838108
6.3999999999999915 195.2380000000001 29.454879832481836
6.499999999999991 193.01949999999985 28.419430567549806
6.599999999999991 188.72650000000004 27.188870561912484
6.69999999999999 186.085 28.547648646486515
6.79999999999999 181.52199999999996 28.354373322055363
6.89999999999999 178.75000000000023 26.77988353526135
6.999999999999989 177.33250000000004 26.731690500733944
7.099999999999989 172.57600000000008 26.888514578091062
7.199999999999989 170.21799999999993 26.576705915092283
7.299999999999988 165.07449999999997 26.06351869484926
7.399999999999988 164.43549999999988 26.524812071066698
7.499999999999988 161.3755000000001 26.012995323024096
7.599999999999987 158.8015000000001 25.277852313192454
7.699999999999987 157.04649999999975 26.519245051624424
7.7999999999999865 153.99100000000016 24.770567211915058
7.899999999999986 153.56350000000006 25.278285334639687
7.999999999999986 150.2200000000001 24.538056488161743
