# Rounds: 50, repetitions: 1000
# Good arm ~ N(5.0,1.0), 13 bad arm(s) ~ N(0.0,1.0)
# Observation noise range from 0.5 to 8.0 with step size 0.1

# Observation noise | mean | standard deviation

0.5 190.34497175869765 8.542727769569135
0.6 190.2279476050634 8.792536184915262
0.7 189.96673796959467 9.181277239808452
0.7999999999999999 189.853373632056 9.341869196965757
0.8999999999999999 189.90695110236834 9.18594179029957
0.9999999999999999 189.43061099202595 9.210599593735088
1.0999999999999999 188.19945887839984 9.835051651617905
1.1999999999999997 187.15156135464412 10.09771605856131
1.2999999999999996 186.38154796506575 10.49355082010128
1.3999999999999995 184.2843259863107 11.335656333744586
1.4999999999999993 182.88376750010286 12.426108428558823
1.5999999999999992 180.8374224325167 12.615424553099468
1.699999999999999 177.2796379302296 13.582167387954929
1.799999999999999 173.81409312637254 16.015508095812685
1.8999999999999988 170.51618282802977 16.299926440049123
1.9999999999999987 166.97703122247785 16.92349693676265
2.0999999999999988 162.32790933755064 18.076824648143948
2.199999999999999 158.00746848356474 18.190392107556818
2.299999999999999 153.997276087581 19.405984482839735
2.399999999999999 149.02437344257427 19.86934235649926
2.499999999999999 143.75413403937057 21.142325528377455
2.599999999999999 139.01560639097036 22.042370899990008
2.6999999999999993 134.47831718528505 22.82642407063589
2.7999999999999994 130.94580354006712 22.961398919101224
2.8999999999999995 123.85668354827158 23.756005949818014
2.9999999999999996 121.01477738565008 23.061009693750936
3.0999999999999996 115.63401434058656 24.64170189857069
3.1999999999999997 109.21494345835941 25.17530590999831
3.3 105.12369167918433 25.538682386000485
3.4 99.1556195823205 26.305082511112154
3.5 97.72449022391275 25.56339333639585
3.6 92.80296625961054 26.177434341908803
3.7 88.56186605408142 26.162871714290212
3.8000000000000003 85.16245117102143 25.21428437764379
3.9000000000000004 80.45562867249082 26.247630010418494
4.0 78.58866107561543 24.92601294445944
4.1 72.8516864839597 25.202717185086932
4.199999999999999 70.69887101868358 25.000500671767746
4.299999999999999 66.02577841967884 24.698480100615768
4.399999999999999 65.10947490270827 23.630822629437304
4.499999999999998 63.20377345771708 23.342966821370958
4.599999999999998 60.82603370577667 24.017398423364053
4.6999999999999975 58.11827370004616 23.639437453969986
4.799999999999997 54.75029126700104 22.599172027762577
4.899999999999997 53.76374429072463 21.699450721795603
4.9999999999999964 52.257786683994674 21.353299729984027
5.099999999999996 50.985949469032846 21.19602450695245
5.199999999999996 48.31556620546109 20.9842918433899
5.299999999999995 46.39892834064144 20.87903813332735
5.399999999999995 44.63469345860839 20.689375002958094
5.499999999999995 44.770389433958016 20.3545371875728
5.599999999999994 42.28257557515806 19.53001902299068
5.699999999999994 42.43882036093596 19.132754393484976
5.799999999999994 41.214632775842084 19.670171942364565
5.899999999999993 39.437697670813854 17.946123942911292
5.999999999999993 37.639273969223375 18.216132687678392
6.0999999999999925 36.25765141465619 18.167834604286785
6.199999999999992 36.12516813610299 17.81949901672332
6.299999999999992 35.06750733365224 17.40503841457654
6.3999999999999915 34.798736016607975 17.433704531457476
6.499999999999991 33.83814381430311 17.402250674717653
6.599999999999991 34.07025051260906 17.307811919466154
6.69999999999999 32.020878737247244 16.48424002785003
6.79999999999999 32.57816984530527 15.961074682298229
6.89999999999999 31.62213023307658 15.843398271928539
6.999999999999989 30.57870235658146 16.624181420160443
7.099999999999989 30.195867159511472 15.711206013525619
7.199999999999989 30.646219802953457 15.599392959069842
7.299999999999988 29.812073175397142 16.375588890256687
7.399999999999988 29.859604198095457 15.688985639513971
7.499999999999988 28.23752855024652 15.258515160036001
7.599999999999987 27.958182167538396 15.121843847600887
7.699999999999987 28.344503189640257 15.548468262200899
7.7999999999999865 28.03594632142111 15.340315188665567
7.899999999999986 27.45342466255061 15.266753867256918
7.999999999999986 26.811003645147167 14.964356046457805
