# Rounds: 50, repetitions: 1000
# Good arm ~ N(5.0,1.0), 13 bad arm(s) ~ N(0.5,1.0)
# Observation noise range from 0.5 to 8.0 with step size 0.1

# Observation noise | mean | standard deviation

0.5 196.91257888310705 8.943607310124644
0.6 196.30483525457691 9.348318972672756
0.7 196.02587199432136 9.537576208437354
0.7999999999999999 195.55563123554464 9.238297819125822
0.8999999999999999 194.9630518901098 10.083779385040188
0.9999999999999999 194.33821036093616 9.517656012748635
1.0999999999999999 193.27028364304908 10.657232318245901
1.1999999999999997 192.10491597112204 10.784456021531803
1.2999999999999996 190.32186605175684 11.367656034650933
1.3999999999999995 187.9708921106454 13.383589244040918
1.4999999999999993 186.6992840622807 12.764172015898541
1.5999999999999992 183.0912278078068 13.909980845649805
1.699999999999999 180.46642877128983 14.565915617142823
1.799999999999999 177.1486717639666 15.196808625117374
1.8999999999999988 172.85790820437208 16.821305409380585
1.9999999999999987 168.8732569349545 17.851545856454962
2.0999999999999988 164.3595331039641 18.06232326056248
2.199999999999999 162.2410049805032 19.556282470460637
2.299999999999999 155.73353171347054 20.149013627589284
2.399999999999999 152.45228040342602 20.51662137322844
2.499999999999999 148.23535147489034 21.142098592996764
2.599999999999999 143.0665970847938 21.91580528212749
2.6999999999999993 138.89051116738335 22.025267171068496
2.7999999999999994 134.39099197129153 23.01494924705727
2.8999999999999995 128.9852870390642 23.583335045419684
2.9999999999999996 126.09513982214561 23.106237447798833
3.0999999999999996 120.49001842368955 23.087472301329555
3.1999999999999997 115.22934667384544 23.911663738309777
3.3 110.98363522412858 25.081878364170546
3.4 107.75655513028988 24.688307586271716
3.5 103.17948521465797 24.743291882517667
3.6 100.03473736514009 23.850379369767765
3.7 97.47184983575768 24.435704229022786
3.8000000000000003 93.60630739211979 23.50297958792469
3.9000000000000004 92.00198801078926 23.529452381706832
4.0 89.00481000298147 23.051123603316363
4.1 85.09513192605199 23.442513968182762
4.199999999999999 81.38200995989922 22.62954195162713
4.299999999999999 80.34207148679555 22.64321114090335
4.399999999999999 78.61672765155683 21.450457854738392
4.499999999999998 77.4195900347738 21.75018845555547
4.599999999999998 74.99723577939672 21.374438855695146
4.6999999999999975 73.11001464011655 21.634970953844867
4.799999999999997 69.82719047949297 19.892746382981162
4.899999999999997 68.84356968545319 19.754813857432282
4.9999999999999964 67.14951938050812 19.73353505157613
5.099999999999996 65.71588795920215 19.571141550944112
5.199999999999996 65.29300747280357 18.88082706495228
5.299999999999995 63.33474304130192 18.856800016569785
5.399999999999995 63.215644712599534 18.20032383849844
5.499999999999995 61.56098066994295 18.214858580998804
5.599999999999994 59.59640691908907 17.635764157847756
5.699999999999994 60.13110481941513 16.798644362243845
5.799999999999994 58.80438063763367 17.033354171535507
5.899999999999993 58.490729004273554 17.175434992655582
5.999999999999993 57.51204899913563 16.62369516071205
6.0999999999999925 56.951295263632986 16.122437310143034
6.199999999999992 55.73690951510967 16.276698288158475
6.299999999999992 54.1791921800518 15.90373662284083
6.3999999999999915 54.32280971957307 16.078628041858817
6.499999999999991 53.40685116622659 15.065726651104988
6.599999999999991 53.49833637839303 15.090993001922868
6.69999999999999 53.9390593572182 15.904742931142719
6.79999999999999 53.21777877828612 14.786964030754138
6.89999999999999 51.2245468210167 14.24693298359733
6.999999999999989 51.53879829707636 14.423296547051928
7.099999999999989 52.05534488329674 14.95722012497676
7.199999999999989 51.473587718570585 14.41454753479967
7.299999999999988 50.898732706420816 14.426267406962861
7.399999999999988 50.35716100362474 13.412675822576567
7.499999999999988 49.93503197820571 13.754880658638742
7.599999999999987 49.51680356296321 14.241504044991817
7.699999999999987 49.72832378802678 13.991351832595056
7.7999999999999865 49.95466847493122 13.967048759874412
7.899999999999986 49.298611075280014 13.554953888154378
7.999999999999986 48.05867964022304 13.162848054224165
