# Rounds: 10000, repetitions: 1000
# Good arm ~ N(5.0,1.0), 7 bad arm(s) ~ N(4.0,1.0)
# Observation noise range from 0.5 to 8.0 with step size 0.1

# Observation noise | mean | standard deviation

0.5 49913.023967230976 560.0687157293721
0.6 49938.95444709502 280.0912116200364
0.7 49932.65001016054 385.88566817895435
0.7999999999999999 49937.42237702294 139.6980087828204
0.8999999999999999 49932.838614518165 109.06340867909397
0.9999999999999999 49916.893659088106 100.35015954588451
1.0999999999999999 49906.81353580796 103.70995394229472
1.1999999999999997 49886.86058360841 99.93740718591685
1.2999999999999996 49875.33008616072 102.4126931582041
1.3999999999999995 49861.71362070977 105.56271013308964
1.4999999999999993 49840.577341386626 100.73914969337154
1.5999999999999992 49831.87692940871 104.33620731434934
1.699999999999999 49809.77086216773 106.78120714166108
1.799999999999999 49785.989441413876 103.49709711084222
1.8999999999999988 49761.7126630351 104.42521725113858
1.9999999999999987 49740.95109731972 103.91508632611917
2.0999999999999988 49731.14940984236 104.72715287006164
2.199999999999999 49710.06648776492 106.0448086452667
2.299999999999999 49685.664946892255 104.34644758905998
2.399999999999999 49664.87969249553 105.04083444183442
2.499999999999999 49634.623061841616 104.65120071849476
2.599999999999999 49609.57843695074 107.15826783121068
2.6999999999999993 49591.9873422781 113.55512695107849
2.7999999999999994 49562.71069143106 106.93328471840681
2.8999999999999995 49544.281997866456 105.12046753620905
2.9999999999999996 49521.00925297766 109.23984675675912
3.0999999999999996 49484.11086297191 106.78471949764193
3.1999999999999997 49461.99161505013 110.46238613193624
3.3 49437.23614309294 111.25245660665401
3.4 49414.16475346315 108.25572425343447
3.5 49381.339211314655 109.73155943212475
3.6 49355.55759180004 112.47127037778084
3.7 49329.53312518569 114.48226770324871
3.8000000000000003 49305.55344193505 115.71205243809464
3.9000000000000004 49272.28233303378 111.49727291202723
4.0 49250.27433736446 113.78683941627386
4.1 49216.909590846735 116.84339883759098
4.199999999999999 49191.98409880555 114.21646141240551
4.299999999999999 49157.570840799875 116.07229008880745
4.399999999999999 49126.19406549355 114.46421675995876
4.499999999999998 49105.72011973579 113.14145021759593
4.599999999999998 49070.91322136375 116.58922140013131
4.6999999999999975 49043.04759656244 118.09380347580938
4.799999999999997 49015.64473863695 120.81834930802991
4.899999999999997 48980.70418317515 117.16539594772622
4.9999999999999964 48953.21989123007 117.20323155439613
5.099999999999996 48916.17678139409 118.73180882925129
5.199999999999996 48897.091920370185 120.97412762861842
5.299999999999995 48863.081768765835 117.42734941694901
5.399999999999995 48836.68455578902 121.69384768315359
5.499999999999995 48796.61161702776 125.99711326318854
5.599999999999994 48760.65073006796 128.18458931224998
5.699999999999994 48734.33560905677 122.37746644153889
5.799999999999994 48698.756653248915 124.27920391835933
5.899999999999993 48671.72701758157 121.21182811391922
5.999999999999993 48640.33233032683 125.22374369072827
6.0999999999999925 48615.40821295089 122.61143580931461
6.199999999999992 48576.61377605925 122.70750739296916
6.299999999999992 48535.39062297744 127.39366498353807
6.3999999999999915 48507.501820709294 128.08641431876683
6.499999999999991 48479.713111157966 130.394940167185
6.599999999999991 48449.44756214559 131.2199383201241
6.69999999999999 48415.53458075037 125.32656818060343
6.79999999999999 48382.699311619144 124.91589895660711
6.89999999999999 48347.32312583528 127.92002534963899
6.999999999999989 48313.584321884366 126.74822295642643
7.099999999999989 48281.2487092205 128.15002840356397
7.199999999999989 48248.595456586714 128.528256428422
7.299999999999988 48228.13031841309 133.76263377092306
7.399999999999988 48188.704400192364 131.78077403890842
7.499999999999988 48152.29170503726 132.51399964381994
7.599999999999987 48121.594687944766 129.94448386634085
7.699999999999987 48089.69964462816 132.76413464543253
7.7999999999999865 48054.06550269344 132.48841086292606
7.899999999999986 48016.046954636804 133.71644669941313
7.999999999999986 47990.73572897661 130.6591372462486
