# Rounds: 10000, repetitions: 1000
# Good arm ~ N(5.0,0.0), 7 bad arm(s) ~ N(0.0,0.0)
# Observation noise range from 0.5 to 4.0 with step size 0.1

# Observation noise | mean | standard deviation

0.5 49969.57000000006 1.8078629285342276
0.6 49969.420000000006 2.125586535081131
0.7 49969.29999999994 2.432265593210563
0.7999999999999999 49969.17499999998 2.7298034410606675
0.8999999999999999 49969.02500000005 2.834150209041013
0.9999999999999999 49968.719999999965 3.4890935461483257
1.0999999999999999 49967.96500000002 4.242850077103447
1.1999999999999997 49965.49500000005 5.519097338826004
1.2999999999999996 49959.06499999995 6.789467716387836
1.3999999999999995 49948.71500000003 6.653423407768537
1.4999999999999993 49939.08999999993 4.711060824707575
1.5999999999999992 49934.71000000007 2.995809552504094
1.699999999999999 49932.175000000025 3.5646994378323065
1.799999999999999 49928.43 4.9557703396807655
1.8999999999999988 49921.31499999995 6.700049676358029
1.9999999999999987 49912.55500000006 6.70760515884518
2.0999999999999988 49904.20500000001 6.048103384909525
2.199999999999999 49897.16499999995 5.824233571612377
2.299999999999999 49890.38500000006 6.357451705848274
2.399999999999999 49882.249999999985 6.999034682474897
2.499999999999999 49874.31000000005 7.195531646492603
2.599999999999999 49864.96499999997 7.27163335514457
2.6999999999999993 49855.975 7.261342995762046
2.7999999999999994 49847.34499999995 7.927093654916239
2.8999999999999995 49838.64000000001 8.292717839717493
2.9999999999999996 49829.064999999995 8.337883142338601
3.0999999999999996 49818.865 8.26771613749104
3.1999999999999997 49809.255000000085 8.80894843738865
3.3 49799.56499999999 8.506358394350197
3.4 49789.20000000002 8.952102554156795
3.5 49778.105000000025 9.582577983027326
3.6 49767.49499999993 9.9699234888926
3.7 49756.490000000034 9.71721793129728
3.8000000000000003 49746.044999999955 10.221910900729922
3.9000000000000004 49734.52499999998 10.404692817793034
4.0 49723.299999999916 10.861766798177014
