# Rounds: 50, repetitions: 1000
# Good arm ~ N(5.0,0.0), 16 bad arm(s) ~ N(1.0,0.0)
# Observation noise range from 0.5 to 8.0 with step size 0.1

# Observation noise | mean | standard deviation

0.5 192.10800000000017 4.066063067497676
0.6 192.02000000000024 4.223913048518069
0.7 191.87200000000004 4.322302430221453
0.7999999999999999 191.4479999999998 4.655853624521778
0.8999999999999999 190.8200000000001 5.4652968326953175
0.9999999999999999 190.39599999999996 5.7720447417271945
1.0999999999999999 189.5159999999998 6.640620591619586
1.1999999999999997 188.6160000000002 6.649568464250971
1.2999999999999996 186.89199999999997 8.217533928367038
1.3999999999999995 184.41999999999973 9.386357318134872
1.4999999999999993 181.44800000000018 10.26999361094102
1.5999999999999992 177.38800000000006 11.800538492319248
1.699999999999999 173.49200000000002 13.027649659691319
1.799999999999999 169.18400000000003 12.23976944047379
1.8999999999999988 164.21599999999995 13.92074463278206
1.9999999999999987 160.01200000000003 14.63167597857268
2.0999999999999988 154.464 15.51932838603367
2.199999999999999 151.26799999999992 15.166746724535466
2.299999999999999 145.176 16.539485438748613
2.399999999999999 140.5320000000002 17.077019663881643
2.499999999999999 136.5240000000002 17.95995501063364
2.599999999999999 131.20799999999997 17.62394221901954
2.6999999999999993 126.81199999999991 17.795542625537873
2.7999999999999994 123.04400000000017 17.928287355112513
2.8999999999999995 118.85200000000006 19.06214734654682
2.9999999999999996 115.00800000000011 18.490804359082
3.0999999999999996 111.108 18.400622786169937
3.1999999999999997 107.792 17.996905973656258
3.3 105.33600000000001 18.305797065580258
3.4 101.67200000000001 18.24744873634079
3.5 99.46800000000005 18.16984092167897
3.6 95.2280000000001 17.12265169888128
3.7 93.69200000000001 16.882599271384596
3.8000000000000003 92.50000000000004 17.10328981577879
3.9000000000000004 89.3160000000001 16.682999324655842
4.0 87.45199999999981 15.79560689550096
4.1 86.78 15.373091163846382
4.199999999999999 84.5920000000001 14.953566301894226
4.299999999999999 83.22800000000004 15.498523162553944
4.399999999999999 82.17599999999995 14.729085849772567
4.499999999999998 80.36399999999983 13.86837538559712
4.599999999999998 79.61199999999984 13.58536043018433
4.6999999999999975 78.45599999999993 13.22206061424946
4.799999999999997 76.82400000000011 12.99884587161468
4.899999999999997 77.488 12.898070251639059
4.9999999999999964 75.5919999999999 12.292137024644353
5.099999999999996 75.82399999999988 12.019046612834217
5.199999999999996 74.94400000000007 12.422849560032141
5.299999999999995 73.85999999999996 12.118715413081647
5.399999999999995 73.86000000000004 11.975132725936865
5.499999999999995 73.03199999999997 11.963197486211385
5.599999999999994 72.43599999999984 10.961480650808891
5.699999999999994 72.89200000000002 11.479028883320408
5.799999999999994 71.77200000000006 11.022409423964852
5.899999999999993 71.66000000000001 11.063037141345504
5.999999999999993 70.36799999999992 10.33960751109461
6.0999999999999925 70.85599999999995 10.581267751419357
6.199999999999992 70.31999999999991 10.145764462894705
6.299999999999992 70.01999999999998 10.010584988491575
6.3999999999999915 70.12399999999991 9.87857328819355
6.499999999999991 69.14400000000002 9.521655629454692
6.599999999999991 69.13999999999992 9.709927017371578
6.69999999999999 69.15600000000005 9.708033266831638
6.79999999999999 68.60399999999997 9.59996579907154
6.89999999999999 68.25199999999992 9.30930497723431
6.999999999999989 68.34800000000003 9.254433561301381
7.099999999999989 67.99199999999996 9.5315679081034
7.199999999999989 68.03199999999987 9.292433767605004
7.299999999999988 67.75999999999998 9.143413039013499
7.399999999999988 67.58400000000003 9.30212198766892
7.499999999999988 67.57200000000007 9.288223031726059
7.599999999999987 67.2480000000001 8.94888700222426
7.699999999999987 67.612 9.18334306174988
7.7999999999999865 67.07199999999997 8.485447473104669
7.899999999999986 66.76399999999987 8.468294752547061
7.999999999999986 66.95199999999996 8.265713400428197
