# Rounds: 500, repetitions: 1000
# Good arm ~ N(5.0,0.0), 16 bad arm(s) ~ N(3.0,0.0)
# Observation noise range from 0.5 to 8.0 with step size 0.1

# Observation noise | mean | standard deviation

0.5 2469.3099999999986 6.139184765878092
0.6 2466.32 7.551597620810218
0.7 2459.1639999999975 6.849526992429453
0.7999999999999999 2448.9780000000014 6.163237907261183
0.8999999999999999 2439.802000000001 5.931271025334765
0.9999999999999999 2431.333999999996 5.53055431498784
1.0999999999999999 2421.784000000001 6.037698054540186
1.1999999999999997 2411.276000000001 5.898356941947046
1.2999999999999996 2400.370000000001 6.233936313595328
1.3999999999999995 2389.8339999999976 6.449654412605528
1.4999999999999993 2378.159999999999 6.58982745038334
1.5999999999999992 2366.456 7.03886422724648
1.699999999999999 2354.6400000000044 7.701019783490113
1.799999999999999 2342.4179999999956 8.132614303864147
1.8999999999999988 2330.3999999999983 8.420861648959121
1.9999999999999987 2317.894000000003 9.070779627079624
2.0999999999999988 2305.4359999999992 9.175952381202839
2.199999999999999 2292.124000000002 9.995826155978357
2.299999999999999 2279.420000000001 10.19369959884596
2.399999999999999 2266.638000000002 10.411404965390302
2.499999999999999 2253.8000000000015 11.068265740688837
2.599999999999999 2240.9540000000056 11.512359376705447
2.6999999999999993 2226.8219999999988 12.046802125105296
2.7999999999999994 2214.2959999999975 12.623459737161388
2.8999999999999995 2201.704000000004 13.401641242325042
2.9999999999999996 2188.701999999997 13.578349221005011
3.0999999999999996 2175.973999999999 14.345351620406973
3.1999999999999997 2161.6500000000015 15.03567662500017
3.3 2149.889999999996 15.149435811455408
3.4 2136.755999999999 16.154548382218326
3.5 2124.5099999999998 16.504675225653617
3.6 2111.1900000000046 16.59648587332099
3.7 2098.509999999998 17.595041502806573
3.8000000000000003 2087.2020000000016 17.728776198753987
3.9000000000000004 2073.6559999999968 18.33253244223899
4.0 2061.145999999999 18.71932416240233
4.1 2049.183999999999 19.64240229625611
4.199999999999999 2037.366 19.868588394871082
4.299999999999999 2025.9859999999994 21.33332873498451
4.399999999999999 2014.9480000000008 21.933316355862967
4.499999999999998 2002.837999999999 21.63510651311507
4.599999999999998 1991.3659999999988 21.96908474845242
4.6999999999999975 1980.0779999999993 22.505742032299764
4.799999999999997 1968.5440000000015 23.894329934170624
4.899999999999997 1957.4180000000015 24.705457608302602
4.9999999999999964 1946.8639999999982 24.057936077067946
5.099999999999996 1936.6900000000014 25.091382534198427
5.199999999999996 1927.2319999999988 25.46202055003668
5.299999999999995 1916.3319999999974 25.419361123362627
5.399999999999995 1906.3100000000006 26.043774269068205
5.499999999999995 1896.955999999999 25.53056744128249
5.599999999999994 1886.929999999999 26.168452149255774
5.699999999999994 1879.471999999999 27.427896483425492
5.799999999999994 1868.902 27.68105194237818
5.899999999999993 1860.8660000000025 28.681992620818725
5.999999999999993 1851.3840000000005 28.225825784930382
6.0999999999999925 1844.5700000000013 28.978938539547627
6.199999999999992 1835.7559999999994 28.822407866019734
6.299999999999992 1828.1760000000002 27.91623793315174
6.3999999999999915 1820.5859999999996 28.085394663301283
6.499999999999991 1811.7439999999995 29.323887094898478
6.599999999999991 1805.0319999999983 29.02939340877936
6.69999999999999 1797.966 27.774417406351876
6.79999999999999 1790.1560000000002 30.23325509622995
6.89999999999999 1785.7180000000023 28.41182337879265
6.999999999999989 1779.2839999999997 27.80900366220766
7.099999999999989 1772.3260000000007 28.82173513889173
7.199999999999989 1765.7800000000016 29.16673273265792
7.299999999999988 1760.2700000000011 28.715146868154072
7.399999999999988 1754.0680000000016 30.065849918659083
7.499999999999988 1746.7319999999995 29.797719377161727
7.599999999999987 1742.3899999999976 28.2859681820509
7.699999999999987 1739.0039999999997 28.93574366179763
7.7999999999999865 1731.9779999999994 30.633869327101806
7.899999999999986 1728.2760000000007 28.587078288014034
7.999999999999986 1722.93 27.848278701324215
