# Rounds: 500, repetitions: 1000
# Good arm ~ N(5.0,0.0), 16 bad arm(s) ~ N(2.0,0.0)
# Observation noise range from 0.5 to 8.0 with step size 0.1

# Observation noise | mean | standard deviation

0.5 2455.3230000000012 4.295942984506016
0.6 2455.080000000001 4.397378416390474
0.7 2454.3390000000054 6.1981041855954295
0.7999999999999999 2453.3220000000038 6.1840568042796855
0.8999999999999999 2450.6189999999992 6.880492728008672
0.9999999999999999 2443.8630000000007 8.146938296292882
1.0999999999999999 2434.226999999996 8.57175279309578
1.1999999999999997 2423.8769999999986 7.121417385997372
1.2999999999999996 2413.74 7.26933581857675
1.3999999999999995 2405.4569999999967 6.953020602263164
1.4999999999999993 2396.448000000002 6.9852766652502885
1.5999999999999992 2387.379000000003 7.5683974287585585
1.699999999999999 2376.891000000001 8.1676085134407
1.799999999999999 2366.2649999999976 8.342323978926322
1.8999999999999988 2355.5700000000015 8.64093546820979
1.9999999999999987 2344.962000000003 8.652596340025589
2.0999999999999988 2332.9139999999998 9.416755241551057
2.199999999999999 2322.974999999998 9.696927627109803
2.299999999999999 2310.629999999998 10.361006247003752
2.399999999999999 2299.103999999999 11.093613128834628
2.499999999999999 2286.7049999999967 10.716567539087297
2.599999999999999 2274.9240000000004 11.468380345443178
2.6999999999999993 2262.1259999999975 11.80480738841074
2.7999999999999994 2249.9459999999954 12.505017371417734
2.8999999999999995 2236.443000000005 13.317887111592338
2.9999999999999996 2223.732 13.347221595685212
3.0999999999999996 2211.6599999999935 13.709206481133114
3.1999999999999997 2197.407 14.644446415307398
3.3 2183.582999999997 15.145444711050791
3.4 2170.611000000002 15.937555793931654
3.5 2156.355000000001 15.711582632848586
3.6 2143.4099999999985 17.275483852625968
3.7 2129.9130000000014 17.739902342886108
3.8000000000000003 2115.752999999999 18.427847855259063
3.9000000000000004 2102.195999999994 18.559904473193118
4.0 2086.875 19.27477345889938
4.1 2073.774000000001 19.358038579816338
4.199999999999999 2059.8509999999997 19.63961592072294
4.299999999999999 2044.676999999998 20.325840961958033
4.399999999999999 2029.7040000000006 20.891262020970103
4.499999999999998 2016.3329999999985 22.12875488573164
4.599999999999998 2003.2020000000011 23.0356644757176
4.6999999999999975 1987.2479999999987 22.992153773301347
4.799999999999997 1973.4569999999985 24.093331850112378
4.899999999999997 1958.688 23.90167245081286
4.9999999999999964 1944.6570000000004 23.67174904190019
5.099999999999996 1929.444000000001 25.740929654141418
5.199999999999996 1915.337999999999 26.98466097485623
5.299999999999995 1900.3290000000009 27.07359855539599
5.399999999999995 1885.134 28.737569345577786
5.499999999999995 1872.2519999999997 29.43720511606096
5.599999999999994 1856.963999999999 28.7464617485885
5.699999999999994 1843.335 28.372517949148865
5.799999999999994 1830.5310000000006 30.45417041220292
5.899999999999993 1814.6849999999988 30.48378316475885
5.999999999999993 1800.8669999999984 32.69012014286531
6.0999999999999925 1787.5560000000007 33.173322615217984
6.199999999999992 1773.276000000002 34.12451181051978
6.299999999999992 1759.0739999999996 33.17138623670805
6.3999999999999915 1744.6050000000023 34.42249094535258
6.499999999999991 1731.863999999998 36.441617630059966
6.599999999999991 1716.5850000000007 35.952292588127726
6.69999999999999 1704.3209999999983 35.50352742277108
6.79999999999999 1690.0739999999985 37.175967728851056
6.89999999999999 1679.1299999999999 35.71608515415337
6.999999999999989 1664.736000000002 38.44034292203915
7.099999999999989 1652.9070000000013 37.6735669753827
7.199999999999989 1638.9059999999993 38.856955967072686
7.299999999999988 1627.497000000002 37.59792008335828
7.399999999999988 1611.6119999999996 39.69641370780569
7.499999999999988 1600.8240000000014 39.54223833589363
7.599999999999987 1587.8519999999996 40.061365540992334
7.699999999999987 1578.4350000000006 40.73668190037392
7.7999999999999865 1565.019000000001 40.95372811902286
7.899999999999986 1555.4969999999998 41.63093952970699
7.999999999999986 1540.5269999999998 42.74562503297222
