# Rounds: 500, repetitions: 1000
# Good arm ~ N(5.0,1.0), 16 bad arm(s) ~ N(3.0,1.0)
# Observation noise range from 0.5 to 8.0 with step size 0.1

# Observation noise | mean | standard deviation

0.5 2453.6546187211156 49.58317348362262
0.6 2450.7616134703085 40.08871823605496
0.7 2445.2066952332307 28.149319248847966
0.7999999999999999 2437.514194776595 28.753355567691653
0.8999999999999999 2431.3797904487847 26.59687912892227
0.9999999999999999 2422.79822443266 28.360940187745012
1.0999999999999999 2414.010591795115 25.96029597874011
1.1999999999999997 2404.20107666741 27.632024423054627
1.2999999999999996 2394.616383538792 29.519847304791696
1.3999999999999995 2383.88724517218 27.96908082805556
1.4999999999999993 2372.642560799332 29.971217493889974
1.5999999999999992 2360.5179468638917 28.828020208358822
1.699999999999999 2348.8613091496686 30.75906430875305
1.799999999999999 2337.1467486202555 32.422229008680816
1.8999999999999988 2323.640734665979 31.53792871829653
1.9999999999999987 2313.421623335506 32.04315765502243
2.0999999999999988 2298.593924418608 33.78259565165289
2.199999999999999 2283.427732707289 34.748484748265355
2.299999999999999 2272.220206604427 35.80934679128088
2.399999999999999 2261.0625626114074 36.36049616977443
2.499999999999999 2246.389656634909 36.08773175265236
2.599999999999999 2233.8665773460098 37.321649488057695
2.6999999999999993 2222.989904097598 37.40256012015808
2.7999999999999994 2207.955616786735 37.74896191664491
2.8999999999999995 2193.8038659689387 39.512523549838384
2.9999999999999996 2182.1244619551812 39.47465262249685
3.0999999999999996 2169.09468158707 39.86741224268814
3.1999999999999997 2159.067847617231 41.85417161773553
3.3 2144.5023151203486 43.39556443551674
3.4 2129.188408414529 44.08093926106693
3.5 2118.0978318246052 42.7046906518062
3.6 2104.6666303745924 42.53034419048711
3.7 2093.1338655160694 44.084225632689844
3.8000000000000003 2079.701909720666 46.86012735680102
3.9000000000000004 2068.278352720883 48.42643968366655
4.0 2054.8247142066593 45.946911084468596
4.1 2041.9037233424 46.95832802493193
4.199999999999999 2029.9016640368657 49.5483960557318
4.299999999999999 2020.098503494615 47.8574337976275
4.399999999999999 2007.562009729329 50.85289037711835
4.499999999999998 1996.2049500028359 48.77513658225423
4.599999999999998 1985.6200891320902 50.5573920481209
4.6999999999999975 1974.7091045889974 49.64450056806575
4.799999999999997 1963.608906783439 50.0108462510378
4.899999999999997 1953.8617226520896 51.35189430854561
4.9999999999999964 1944.357664178189 51.370608297169746
5.099999999999996 1932.0833320615934 51.39137826570128
5.199999999999996 1918.9646745455402 52.702913211215424
5.299999999999995 1909.7236191708591 51.865126484144454
5.399999999999995 1899.211393590412 51.160687847711074
5.499999999999995 1893.4091784847697 48.66433555475666
5.599999999999994 1881.8205114000468 52.079545563322355
5.699999999999994 1874.598593864475 50.95200633348882
5.799999999999994 1866.1702198303965 51.8646605381804
5.899999999999993 1855.1759669647026 51.521675557774316
5.999999999999993 1846.8410332164578 52.10370552107695
6.0999999999999925 1838.5058004644798 52.63336783359653
6.199999999999992 1830.5500015547361 52.55766859914574
6.299999999999992 1824.3129974693238 49.14675667296288
6.3999999999999915 1818.8351172886453 50.37215472563221
6.499999999999991 1809.0618840500968 51.222664583424326
6.599999999999991 1803.291906057681 51.243854183877325
6.69999999999999 1795.7262927259987 49.44629883338615
6.79999999999999 1790.1325207863213 50.82974724796617
6.89999999999999 1781.1133235381226 52.5868135848435
6.999999999999989 1771.8619418798705 48.68635923932418
7.099999999999989 1765.8146619400966 48.82827827021394
7.199999999999989 1765.9350387952209 51.179696390252424
7.299999999999988 1755.4989409092275 47.31730770845017
7.399999999999988 1753.75921717547 49.057606872441795
7.499999999999988 1746.2213813964102 47.52067642127021
7.599999999999987 1741.3996956551557 45.89795026424565
7.699999999999987 1736.5875311356742 45.293774638259336
7.7999999999999865 1729.4367638759168 45.9841169689777
7.899999999999986 1727.5104595885455 46.72792303635384
7.999999999999986 1723.5364715000442 47.25919427921676
