# Rounds: 50, repetitions: 1000
# Good arm ~ N(5.0,0.0), 19 bad arm(s) ~ N(3.0,0.0)
# Observation noise range from 0.5 to 8.0 with step size 0.1

# Observation noise | mean | standard deviation

0.5 214.9540000000001 6.767546356227164
0.6 214.26600000000025 7.059963674629412
0.7 212.9559999999997 7.523208269260029
0.7999999999999999 209.9119999999998 8.929052804412368
0.8999999999999999 206.47199999999995 9.32009013261567
0.9999999999999999 202.70400000000006 10.311290254216825
1.0999999999999999 198.3059999999998 11.309919463828116
1.1999999999999997 195.40999999999983 10.617562461913343
1.2999999999999996 191.74599999999995 10.88549392439214
1.3999999999999995 189.08200000000014 10.756252738429527
1.4999999999999993 185.81799999999978 10.384734889187994
1.5999999999999992 182.81400000000028 10.843938168165433
1.699999999999999 180.1119999999999 10.157688449378371
1.799999999999999 178.04600000000013 10.39085433705304
1.8999999999999988 176.40599999999986 9.930447007953768
1.9999999999999987 174.4780000000001 9.795686370615954
2.0999999999999988 172.32199999999983 9.574339871969443
2.199999999999999 171.52199999999988 9.082180465174764
2.299999999999999 170.79400000000018 8.603463464418475
2.399999999999999 169.27599999999975 8.787778390984222
2.499999999999999 168.14200000000005 8.463774067841785
2.599999999999999 167.60999999999999 7.9668922028211
2.6999999999999993 166.52799999999996 7.5584619034791976
2.7999999999999994 165.87600000000015 7.590140593838478
2.8999999999999995 165.46400000000023 7.341839456608034
2.9999999999999996 164.4680000000001 6.7529681310204985
3.0999999999999996 164.7000000000001 6.818540349113772
3.1999999999999997 163.49999999999974 6.384258669474379
3.3 163.25399999999988 6.478074517126926
3.4 163.19799999999978 6.256191807796162
3.5 162.5039999999998 5.994490630397049
3.6 162.24399999999983 5.975296492072022
3.7 162.37399999999997 5.854776033496282
3.8000000000000003 161.98399999999967 5.541701404303054
3.9000000000000004 161.54199999999994 5.398831668368942
4.0 161.21200000000024 5.258774639658062
4.1 160.95 5.115042879943796
4.199999999999999 160.70999999999995 5.1297382208270905
4.299999999999999 160.69 4.9156956846477105
4.399999999999999 160.61800000000002 4.862274952912234
4.499999999999998 160.3339999999999 4.92185622186067
4.599999999999998 160.7439999999998 5.004748895949899
4.6999999999999975 160.3859999999998 4.814372459852086
4.799999999999997 160.16799999999975 4.748296781196642
4.899999999999997 160.0319999999999 4.638587338025722
4.9999999999999964 159.86999999999964 4.447345149510976
5.099999999999996 159.87199999999976 4.3720396533804164
5.199999999999996 159.7260000000001 4.368066391895161
5.299999999999995 159.97200000000024 4.359153383194757
5.399999999999995 159.35399999999981 4.13954343132424
5.499999999999995 159.54599999999985 4.275999084210401
5.599999999999994 159.67200000000017 4.29498112485525
5.699999999999994 159.55400000000006 4.1243295326748495
5.799999999999994 159.44399999999987 4.192904058578551
5.899999999999993 159.10799999999998 4.124724154334365
5.999999999999993 159.24200000000016 3.8936610788044663
6.0999999999999925 159.11199999999985 4.140120360158211
6.199999999999992 159.05999999999975 3.978470589086749
6.299999999999992 159.17000000000007 3.972767660319777
6.3999999999999915 159.14800000000014 3.911188232927827
6.499999999999991 159.25400000000022 3.903167779985726
6.599999999999991 159.05000000000013 3.952862902394306
6.69999999999999 159.246 3.8707191149018274
6.79999999999999 158.6599999999998 3.776063910828138
6.89999999999999 158.92399999999998 3.852410292928965
6.999999999999989 158.63799999999998 3.6691168444761177
7.099999999999989 158.8960000000001 3.709844598759762
7.199999999999989 159.016 3.8862381356328166
7.299999999999988 158.812 3.7644158679437787
7.399999999999988 158.90399999999974 3.8300722517275707
7.499999999999988 158.66599999999983 3.494088243398075
7.599999999999987 158.81400000000022 3.7006890032937214
7.699999999999987 158.50599999999986 3.550291335731265
7.7999999999999865 158.57800000000006 3.5222609673790988
7.899999999999986 158.80199999999994 3.6913984372351902
7.999999999999986 158.566 3.5264826782617336
