# Rounds: 50, repetitions: 1000
# Good arm ~ N(5.0,1.0), 19 bad arm(s) ~ N(0.0,1.0)
# Observation noise range from 0.5 to 8.0 with step size 0.1

# Observation noise | mean | standard deviation

0.5 162.3904415967082 10.08135013139527
0.6 162.48129979296203 10.442624193553819
0.7 161.574896138416 9.732097366816491
0.7999999999999999 161.470261054345 10.522248642757813
0.8999999999999999 161.00331024443966 10.551772445926847
0.9999999999999999 160.3057742153405 10.170417973680708
1.0999999999999999 159.1471968977093 10.843813881850823
1.1999999999999997 158.14283340668683 11.991907062845039
1.2999999999999996 156.38161669432955 12.253744334836473
1.3999999999999995 154.1665481055093 13.249274792356067
1.4999999999999993 151.55085869379022 14.411283824777701
1.5999999999999992 149.2725270028163 15.369899153029484
1.699999999999999 145.71382817769953 16.8779626197901
1.799999999999999 141.22269830359716 17.821181332934714
1.8999999999999988 136.94276684441724 19.83052339655644
1.9999999999999987 131.31694967935584 19.739653193783624
2.0999999999999988 128.0700433539952 20.78472174056305
2.199999999999999 121.78420162930516 23.006302667994454
2.299999999999999 117.26040666517694 23.735809376085854
2.399999999999999 110.34914522645887 24.604412522213156
2.499999999999999 104.0556116823852 25.963331439218802
2.599999999999999 99.7288223469447 25.365039830667122
2.6999999999999993 93.98400852904632 26.19914971975298
2.7999999999999994 86.90981021139187 26.59160344949417
2.8999999999999995 83.60797635752174 26.37963951412751
2.9999999999999996 77.07911949829031 26.283686765356922
3.0999999999999996 74.03852162425517 26.226004756004205
3.1999999999999997 70.70519320810666 26.440709825715153
3.3 66.03469404120027 25.296663067578486
3.4 60.11794570369175 25.55372779569122
3.5 58.54927823636614 24.338592433767356
3.6 53.91545284442376 24.127100793360572
3.7 51.45718976099628 23.46426532357335
3.8000000000000003 49.045082166618684 24.740640352290498
3.9000000000000004 46.58116405808652 22.90100237231246
4.0 44.14608208645263 21.476477808023304
4.1 40.93549131780619 21.501565421157377
4.199999999999999 40.24430476729066 21.008980727994125
4.299999999999999 38.15833848926422 20.323121391914857
4.399999999999999 36.62686497495354 19.907935688050063
4.499999999999998 34.673388986592414 18.98955425559285
4.599999999999998 35.05160461588419 19.735378198091926
4.6999999999999975 33.22670299367529 18.48264790928726
4.799999999999997 30.8481923682855 17.717601099187533
4.899999999999997 30.6031944489402 17.912167571902312
4.9999999999999964 28.2596388721513 17.33933739537564
5.099999999999996 27.82932236532571 16.643017797248326
5.199999999999996 26.982781134937014 16.435784453429275
5.299999999999995 26.80661052216173 16.15559244162387
5.399999999999995 27.040455377278562 16.403348637008882
5.499999999999995 25.496550548468065 16.041349136243817
5.599999999999994 24.616280156564887 15.078673922532545
5.699999999999994 24.275134834366508 15.63019515020375
5.799999999999994 23.0863792865979 14.969938454448156
5.899999999999993 22.605685154559247 14.362181719810401
5.999999999999993 22.269123068058008 14.409541763805143
6.0999999999999925 22.023493200654794 14.339487394566552
6.199999999999992 20.9286115654467 13.90953424977349
6.299999999999992 21.228374266566057 13.954479238649201
6.3999999999999915 21.313258052013303 14.466638771084096
6.499999999999991 20.630452298759295 13.934906853395578
6.599999999999991 20.69704048715467 14.180110419663123
6.69999999999999 19.513297293687767 13.555667316847497
6.79999999999999 19.925805206751992 13.434694602363436
6.89999999999999 19.221306502949766 12.73082125220715
6.999999999999989 19.683538571455557 13.275944944861433
7.099999999999989 19.104293400096434 12.691632918748732
7.199999999999989 18.762585747405517 13.935782950135827
7.299999999999988 18.163286644002135 12.796836097133975
7.399999999999988 19.753878684355133 13.012427387871352
7.499999999999988 18.39055512442305 12.448559463265731
7.599999999999987 17.256506690944743 12.048763428960338
7.699999999999987 17.831897155400558 13.065162678516812
7.7999999999999865 17.879897806117924 12.691074556491222
7.899999999999986 17.63698549475449 12.27144964374181
7.999999999999986 17.009271380067464 12.552528540284175
