# Rounds: 50, repetitions: 1000
# Good arm ~ N(5.0,0.0), 19 bad arm(s) ~ N(4.0,0.0)
# Observation noise range from 0.5 to 8.0 with step size 0.1

# Observation noise | mean | standard deviation

0.5 227.0609999999996 6.191899435441339
0.6 223.48699999999977 6.0306052100265495
0.7 220.56100000000004 5.877654789610044
0.7999999999999999 218.17899999999997 5.546505451428209
0.8999999999999999 216.1439999999999 5.172622160956673
0.9999999999999999 214.90300000000025 4.964497682267241
1.0999999999999999 213.74199999999996 4.724590750293378
1.1999999999999997 212.62199999999996 4.670217010688783
1.2999999999999996 212.05200000000013 4.223166008000539
1.3999999999999995 211.73699999999997 4.083687978715744
1.4999999999999993 210.8590000000001 3.941656460887443
1.5999999999999992 210.35200000000015 3.802440605000235
1.699999999999999 210.00700000000003 3.7286530884293674
1.799999999999999 209.64800000000008 3.5993125803479638
1.8999999999999988 209.52000000000007 3.3992874481507402
1.9999999999999987 209.21200000000016 3.4973257336552512
2.0999999999999988 208.96699999999998 3.3276093496659045
2.199999999999999 208.82799999999995 3.284997291811242
2.299999999999999 208.65699999999995 3.066717423525644
2.399999999999999 208.60999999999999 3.125006506499725
2.499999999999999 208.26700000000002 2.9387662968237787
2.599999999999999 208.40000000000006 3.0369759997772787
2.6999999999999993 208.02700000000002 2.742223694520717
2.7999999999999994 207.85499999999993 2.926523456174498
2.8999999999999995 207.9040000000001 2.7063089454288356
2.9999999999999996 207.724 2.6602445190058894
3.0999999999999996 207.60600000000017 2.635851230952103
3.1999999999999997 207.63900000000027 2.6388714714139816
3.3 207.6200000000001 2.498768465433291
3.4 207.47500000000022 2.426780637854253
3.5 207.4610000000001 2.450404759112964
3.6 207.34100000000004 2.416310732823402
3.7 207.23900000000032 2.3535969107768615
3.8000000000000003 207.14799999999997 2.4281663847421977
3.9000000000000004 207.24099999999996 2.311766264842384
4.0 207.22299999999973 2.3005572289259804
4.1 207.16000000000008 2.20164648553014
4.199999999999999 207.17500000000024 2.2093565253838596
4.299999999999999 207.07599999999994 2.246167685029162
4.399999999999999 207.0500000000001 2.139176494840034
4.499999999999998 207.04899999999986 2.1723992078617513
4.599999999999998 207.08100000000002 2.113031922121363
4.6999999999999975 206.8460000000001 2.03431128945951
4.799999999999997 207.03700000000015 2.087579696440107
4.899999999999997 206.9019999999999 2.0299055437424913
4.9999999999999964 206.92799999999988 2.003704277290162
5.099999999999996 207.0020000000004 2.0074924722215064
5.199999999999996 206.8720000000003 2.03119219714477
5.299999999999995 206.82800000000023 2.0200238851301897
5.399999999999995 206.8309999999998 1.9453080021485503
5.499999999999995 206.86300000000008 1.9697997642174505
5.599999999999994 206.7719999999998 1.9390141246973371
5.699999999999994 206.80399999999963 1.9461169983768778
5.799999999999994 206.72599999999989 1.9032988589673885
5.899999999999993 206.71799999999985 1.906334207349318
5.999999999999993 206.81099999999992 1.8928449122582418
6.0999999999999925 206.70700000000014 1.939823165629778
6.199999999999992 206.74900000000008 1.8717645424845732
6.299999999999992 206.6799999999999 1.8206907795984748
6.3999999999999915 206.66900000000018 1.7901518493255417
6.499999999999991 206.81199999999995 1.8585236372212632
6.599999999999991 206.66300000000015 1.791267606930814
6.69999999999999 206.70200000000023 1.8211294606678934
6.79999999999999 206.63000000000005 1.7146544958212449
6.89999999999999 206.69800000000032 1.793324290810794
6.999999999999989 206.65199999999973 1.8248907436408965
7.099999999999989 206.64599999999973 1.8176875386017084
7.199999999999989 206.66400000000013 1.8227524314690726
7.299999999999988 206.54300000000003 1.7126249105055316
7.399999999999988 206.5829999999999 1.73727635370114
7.499999999999988 206.58999999999995 1.786362530700618
7.599999999999987 206.62300000000005 1.7691808841949968
7.699999999999987 206.579 1.707241539347524
7.7999999999999865 206.67899999999983 1.7340605427625546
7.899999999999986 206.50800000000004 1.6955267060152275
7.999999999999986 206.62699999999987 1.7734193006776586
