# Rounds: 50, repetitions: 1000
# Good arm ~ N(5.0,0.0), 19 bad arm(s) ~ N(1.0,0.0)
# Observation noise range from 0.5 to 8.0 with step size 0.1

# Observation noise | mean | standard deviation

0.5 180.824 4.166819696889509
0.6 180.81199999999984 4.346901373570769
0.7 180.31200000000018 4.902110431914658
0.7999999999999999 179.94400000000002 5.291584343546319
0.8999999999999999 179.7559999999998 5.734574905723103
0.9999999999999999 179.09200000000016 5.955417953679053
1.0999999999999999 178.2799999999999 6.541283390007567
1.1999999999999997 176.3719999999998 8.005354564396349
1.2999999999999996 174.64799999999985 9.460528399492173
1.3999999999999995 172.81599999999992 8.900188613583264
1.4999999999999993 169.0679999999999 11.093351091461905
1.5999999999999992 164.26399999999987 13.090976956578801
1.699999999999999 160.4039999999998 13.465887052627236
1.799999999999999 155.21200000000007 14.995596817863705
1.8999999999999988 151.32800000000003 15.24824333898583
1.9999999999999987 146.192 16.19658808099613
2.0999999999999988 140.51999999999998 16.866240543466418
2.199999999999999 135.80400000000003 17.659939339008446
2.299999999999999 130.34400000000005 17.31396654257591
2.399999999999999 125.02 17.745605273038922
2.499999999999999 120.62800000000014 18.237604728314142
2.599999999999999 116.7 18.601505745934052
2.6999999999999993 112.76800000000011 17.68170859444349
2.7999999999999994 108.54400000000005 18.73304542755905
2.8999999999999995 103.89199999999988 18.47922665637862
2.9999999999999996 99.68399999999997 17.625061327178052
3.0999999999999996 96.96000000000008 17.662342946459816
3.1999999999999997 95.66800000000002 17.512637393278865
3.3 91.19199999999985 16.94491859721568
3.4 89.64799999999998 16.501527092860115
3.5 87.13600000000007 16.60943639553663
3.6 85.28800000000008 15.825280265938268
3.7 84.03200000000002 15.232564032591736
3.8000000000000003 82.16399999999987 15.017544094512619
3.9000000000000004 80.208 14.179061385782258
4.0 78.36399999999998 13.927723628988517
4.1 77.83599999999998 13.645779981785978
4.199999999999999 77.42400000000005 13.205855467125888
4.299999999999999 76.20400000000005 13.14607177841363
4.399999999999999 74.52399999999994 12.536450318434909
4.499999999999998 74.8080000000001 12.483227425909028
4.599999999999998 73.964 12.243717271017502
4.6999999999999975 71.65199999999999 11.393010870559888
4.799999999999997 71.85199999999998 11.360068096061182
4.899999999999997 70.84400000000002 11.423228709701728
4.9999999999999964 71.2879999999998 11.61464403053128
5.099999999999996 70.41599999999995 10.84880825900433
5.199999999999996 70.05599999999993 10.635317295406562
5.299999999999995 69.66799999999998 10.337341855459595
5.399999999999995 68.5359999999999 10.186288061137068
5.499999999999995 69.05999999999996 9.908308360894637
5.599999999999994 68.11600000000006 9.634072833405416
5.699999999999994 67.29200000000002 9.434603740896994
5.799999999999994 67.27199999999995 9.650862922824858
5.899999999999993 67.36799999999992 9.67916640327368
5.999999999999993 66.89599999999996 9.23875200113842
6.0999999999999925 66.42799999999993 9.043594562042362
6.199999999999992 67.16799999999995 9.030909884022384
6.299999999999992 66.572 9.388554785533309
6.3999999999999915 65.87199999999994 8.465416663063877
6.499999999999991 65.38400000000004 8.72471573546461
6.599999999999991 65.63600000000011 8.512812224639497
6.69999999999999 65.00800000000005 8.842518087407338
6.79999999999999 65.36000000000006 8.468655035961635
6.89999999999999 65.17599999999993 8.373717402870858
6.999999999999989 65.60000000000004 9.014280739873648
7.099999999999989 65.03999999999996 8.277373672543403
7.199999999999989 64.99999999999994 8.073734277593312
7.299999999999988 64.87600000000006 8.24163506523729
7.399999999999988 65.49599999999998 8.137579751019617
7.499999999999988 64.30399999999999 8.071476490254593
7.599999999999987 64.43200000000012 7.899099427895058
7.699999999999987 64.04399999999985 7.715542339563211
7.7999999999999865 64.35999999999993 8.05427037485529
7.899999999999986 64.04399999999995 7.92444703817627
7.999999999999986 63.71200000000002 7.836483041930632
