# Rounds: 10, repetitions: 1000
# Good arm ~ N(5.0,0.0), 4 bad arm(s) ~ N(1.5,0.0)
# Observation noise range from 0.5 to 4.0 with step size 0.1

# Observation noise | mean | standard deviation

0.5 42.63800000000004 5.450795094953346
0.6 42.01849999999999 5.914041226913596
0.7 42.04999999999998 5.775236216238544
0.7999999999999999 41.595 6.154620569487149
0.8999999999999999 41.28700000000008 6.220194677164194
0.9999999999999999 40.695499999999996 6.441158146503476
1.0999999999999999 40.30350000000002 6.49043631149041
1.1999999999999997 39.96749999999996 6.818958273955164
1.2999999999999996 39.155499999999996 7.162148149550957
1.3999999999999995 38.41000000000001 7.270161982738451
1.4999999999999993 38.08799999999999 7.4347516119592765
1.5999999999999992 37.598000000000056 7.191147933995542
1.699999999999999 37.06949999999999 7.135217661787284
1.799999999999999 36.02299999999998 7.5963923132087485
1.8999999999999988 34.93450000000003 7.330053849695731
1.9999999999999987 34.39899999999999 7.998266766698353
2.0999999999999988 33.54500000000003 7.764970686987159
2.199999999999999 32.887000000000036 7.848045796427471
2.299999999999999 32.61399999999995 7.763457688122957
2.399999999999999 32.03649999999998 7.308750617279664
2.499999999999999 31.52200000000001 7.384242888952341
2.599999999999999 30.668000000000003 7.220485538480902
2.6999999999999993 30.202499999999976 7.293211548055131
2.7999999999999994 30.006500000000027 7.189359821614416
2.8999999999999995 29.540999999999986 7.356115240494241
2.9999999999999996 29.138499999999986 7.071178778628051
3.0999999999999996 28.700999999999993 6.806204773838631
3.1999999999999997 28.294999999999984 6.658025555996617
3.3 28.018500000000007 6.640708302339207
3.4 27.920500000000015 6.868996496058425
3.5 27.801499999999997 6.639083157724042
3.6 27.09449999999998 6.413341617339649
3.7 27.0455 6.274715276552547
3.8000000000000003 26.951000000000008 6.428173956919679
3.9000000000000004 26.842499999999976 6.360259165053483
4.0 26.78650000000001 6.146824481079743
