# Rounds: 5000, repetitions: 1000
# Good arm ~ N(5.0,0.0), 7 bad arm(s) ~ N(4.0,0.0)
# Observation noise range from 0.5 to 8.0 with step size 0.1

# Observation noise | mean | standard deviation

0.5 24979.285000000018 3.478487440666547
0.6 24971.627999999982 2.6534235727936206
0.7 24962.657999999992 2.537612160176456
0.7999999999999999 24952.84699999997 2.3377459348817142
0.8999999999999999 24941.97099999999 2.912841163476608
0.9999999999999999 24930.473999999995 2.6484596161426395
1.0999999999999999 24918.152999999995 2.8930884813570814
1.1999999999999997 24905.144 3.1373726439661715
1.2999999999999996 24891.335000000017 3.4156172855636955
1.3999999999999995 24877.12400000004 3.5520756243697154
1.4999999999999993 24862.533000000036 3.9431534917448627
1.5999999999999992 24847.265999999996 4.167806931062716
1.699999999999999 24831.322999999986 4.398183149325971
1.799999999999999 24815.072999999975 4.672633572676574
1.8999999999999988 24798.498999999978 4.800525392500728
1.9999999999999987 24781.444000000007 5.1689052594898355
2.0999999999999988 24763.53100000001 5.371768321036851
2.199999999999999 24745.936000000027 5.394349173255596
2.299999999999999 24727.533000000018 5.968964695785975
2.399999999999999 24708.887000000046 6.269572436660914
2.499999999999999 24689.893000000022 6.546327627411087
2.599999999999999 24670.570000000047 6.783444192673397
2.6999999999999993 24650.858999999986 6.8546411361285715
2.7999999999999994 24631.286999999982 7.0201077565029015
2.8999999999999995 24611.29000000002 7.595893469342435
2.9999999999999996 24590.645000000004 7.951112827472375
3.0999999999999996 24570.339000000025 8.220075951513333
3.1999999999999997 24550.08800000003 8.153203709630324
3.3 24528.614 8.389122801662912
3.4 24507.606999999975 8.986061445388744
3.5 24486.345999999994 9.010631247336407
3.6 24464.389999999974 9.192736611390883
3.7 24443.236999999986 9.564848002833939
3.8000000000000003 24421.203000000012 9.862101807021254
3.9000000000000004 24398.843999999983 10.52484852320613
4.0 24377.288000000055 10.407947990904928
4.1 24354.677000000018 11.037232057517583
4.199999999999999 24332.115 10.833611685035685
4.299999999999999 24309.40799999998 11.198881683049853
4.399999999999999 24286.972999999994 11.36800345278376
4.499999999999998 24265.203999999987 11.729875275294804
4.599999999999998 24241.975000000017 11.634678368598776
4.6999999999999975 24219.094 12.955964688938435
4.799999999999997 24196.340000000004 12.986263629044453
4.899999999999997 24173.032999999985 13.265439415371203
4.9999999999999964 24150.155999999995 13.25176491163624
5.099999999999996 24127.752999999982 13.976098251025583
5.199999999999996 24104.588000000025 13.569981591748805
5.299999999999995 24081.264999999996 14.643674819259441
5.399999999999995 24057.94300000002 14.491920741115257
5.499999999999995 24035.19399999997 14.438241819100677
5.599999999999994 24011.403999999977 15.736658680495902
5.699999999999994 23988.54599999999 15.565158468777506
5.799999999999994 23966.509000000027 15.50968953491562
5.899999999999993 23941.75300000002 16.620777395815228
5.999999999999993 23919.503000000022 15.992490448668496
6.0999999999999925 23897.247999999996 16.825385273139858
6.199999999999992 23873.697000000047 17.602301895832614
6.299999999999992 23849.97700000003 17.398194393906802
6.3999999999999915 23827.303000000018 17.401264178070317
6.499999999999991 23806.397999999976 17.95795322647007
6.599999999999991 23781.54999999998 18.254498807875514
6.69999999999999 23758.954999999987 18.612183869400788
6.79999999999999 23736.056 19.761917857267793
6.89999999999999 23712.67899999999 19.683378632602473
6.999999999999989 23690.88799999999 19.82716753781473
7.099999999999989 23667.923999999985 20.145174411060577
7.199999999999989 23645.259000000016 19.891646402361957
7.299999999999988 23623.38599999997 20.925268716814173
7.399999999999988 23600.239999999994 21.611743739630704
7.499999999999988 23578.903 21.475772391227267
7.599999999999987 23556.804999999982 22.20653293751871
7.699999999999987 23534.128000000022 21.665710674220207
7.7999999999999865 23512.098 22.09240752997448
7.899999999999986 23489.95699999999 22.611776653846686
7.999999999999986 23468.14900000001 23.321850434897062
