# Rounds: 5000, repetitions: 1000
# Good arm ~ N(5.0,0.0), 7 bad arm(s) ~ N(0.0,0.0)
# Observation noise range from 0.5 to 4.0 with step size 0.1

# Observation noise | mean | standard deviation

0.5 24969.57000000001 1.8078629285342036
0.6 24969.42 2.125586535081099
0.7 24969.300000000014 2.4322655932105657
0.7999999999999999 24969.174999999992 2.7298034410607372
0.8999999999999999 24969.030000000017 2.831451415284573
0.9999999999999999 24968.750000000004 3.478447872198116
1.0999999999999999 24968.244999999988 4.130621870498057
1.1999999999999997 24966.759999999995 5.082147993538615
1.2999999999999996 24963.075000000008 6.257677966588975
1.3999999999999995 24956.079999999998 6.601301173039786
1.4999999999999993 24946.34500000004 6.761041834413334
1.5999999999999992 24938.845 5.1153828930141305
1.699999999999999 24934.42000000002 3.6092418354311544
1.799999999999999 24931.649999999998 4.017915335549451
1.8999999999999988 24927.26 5.520223987563583
1.9999999999999987 24921.115 6.669051750530299
2.0999999999999988 24913.57500000002 6.985210674572997
2.199999999999999 24905.954999999998 6.753412736060515
2.299999999999999 24898.759999999987 6.216996947968669
2.399999999999999 24891.875000000004 6.453760611149653
2.499999999999999 24885.134999999966 7.148977750901458
2.599999999999999 24877.479999999992 7.4669508740419435
2.6999999999999993 24868.98499999999 7.733342070513933
2.7999999999999994 24860.810000000052 8.240862322100334
2.8999999999999995 24853.475000000028 7.38945051942154
2.9999999999999996 24844.56499999996 8.408714615295398
3.0999999999999996 24835.779999999988 8.477232063796793
3.1999999999999997 24826.989999999987 9.133636916547685
3.3 24818.30500000005 8.716533310494125
3.4 24809.045000000024 9.167716292622849
3.5 24799.62499999999 9.64507140473323
3.6 24790.109999999997 9.966806772343721
3.7 24780.699999999968 10.193817435775253
3.8000000000000003 24770.91999999999 10.505425453733992
3.9000000000000004 24760.880000000012 10.470684563830444
4.0 24750.544999999987 10.952073909672258
