# Rounds: 5000, repetitions: 1000
# Good arm ~ N(5.0,0.0), 7 bad arm(s) ~ N(2.0,0.0)
# Observation noise range from 0.5 to 8.0 with step size 0.1

# Observation noise | mean | standard deviation

0.5 24982.212000000007 3.811769351047573
0.6 24981.632999999987 4.94153111188524
0.7 24980.81400000001 5.44932097596568
0.7999999999999999 24978.417000000012 5.357220437018657
0.8999999999999999 24971.138999999992 5.630220100349339
0.9999999999999999 24964.167000000012 3.8877017922193478
1.0999999999999999 24960.587999999992 3.3793010631897893
1.1999999999999997 24956.319 4.263263352692913
1.2999999999999996 24949.416000000034 4.629727678641441
1.3999999999999995 24942.642 4.306086201921449
1.4999999999999993 24935.96399999999 4.1545112785938825
1.5999999999999992 24929.10600000001 4.947650274953061
1.699999999999999 24921.354000000047 5.207475569006745
1.799999999999999 24913.305 5.22448756054323
1.8999999999999988 24905.56200000003 4.842272566017262
1.9999999999999987 24897.23700000002 5.628722191893469
2.0999999999999988 24888.54300000001 5.784601335668027
2.199999999999999 24879.95700000002 6.0249025262198135
2.299999999999999 24870.768000000015 6.135455958591768
2.399999999999999 24861.522000000008 6.2512874349684475
2.499999999999999 24851.90400000001 6.454955495621237
2.599999999999999 24841.74899999999 7.055194878582283
2.6999999999999993 24831.90900000001 7.165477169251332
2.7999999999999994 24821.258999999987 7.486920125991282
2.8999999999999995 24811.00199999999 7.847903260463045
2.9999999999999996 24799.911000000004 8.083589760955357
3.0999999999999996 24789.420000000027 8.230026326405921
3.1999999999999997 24777.612000000016 8.699375560069585
3.3 24767.084999999974 8.711582328524822
3.4 24755.463000000018 8.943747627344049
3.5 24743.727000000017 9.363874900550195
3.6 24731.822999999982 9.526406637521955
3.7 24718.901999999987 9.617946813166563
3.8000000000000003 24707.135999999977 9.65114753014627
3.9000000000000004 24694.346999999965 10.376428155259532
4.0 24682.139999999978 10.865931550882804
4.1 24668.831999999995 10.279369700591769
4.199999999999999 24656.699999999997 11.09906253650222
4.299999999999999 24643.649999999983 11.359601249187367
4.399999999999999 24630.89100000001 11.288514054097215
4.499999999999998 24616.325999999975 11.989723828240397
4.599999999999998 24602.184 12.19437767361849
4.6999999999999975 24588.533999999996 12.345008839334332
4.799999999999997 24575.06400000001 12.320296006740008
4.899999999999997 24560.26499999998 12.896320796649361
4.9999999999999964 24546.503999999994 12.359398801670666
5.099999999999996 24531.34200000002 13.16458667571239
5.199999999999996 24517.845000000005 13.65889968264422
5.299999999999995 24502.737000000005 13.468601792102788
5.399999999999995 24487.112999999998 14.527810856708065
5.499999999999995 24473.007000000038 14.498039320685502
5.599999999999994 24457.569000000003 14.973691944555732
5.699999999999994 24442.668000000012 14.341040458817547
5.799999999999994 24427.334999999955 15.267870934838406
5.899999999999993 24411.708000000013 15.956671061075141
5.999999999999993 24396.759000000027 15.188601404099462
6.0999999999999925 24379.641000000014 15.70384442516328
6.199999999999992 24364.563000000006 16.313250845651552
6.299999999999992 24348.089999999993 16.63522259035414
6.3999999999999915 24331.958999999973 17.115029747074367
6.499999999999991 24315.213000000007 17.305406903858326
6.599999999999991 24299.327999999987 17.67418436004315
6.69999999999999 24283.068000000007 17.744245101841692
6.79999999999999 24265.152000000035 18.857584800406027
6.89999999999999 24249.876 17.95809335973941
6.999999999999989 24231.728999999978 18.172831667376716
7.099999999999989 24215.082000000002 18.924783312456274
7.199999999999989 24199.011 18.442369695893056
7.299999999999988 24180.89700000001 18.972146250051257
7.399999999999988 24163.298999999995 19.63209153447527
7.499999999999988 24145.331999999948 19.81101340800744
7.599999999999987 24128.000999999997 20.220431866428175
7.699999999999987 24109.793999999947 20.92724333287863
7.7999999999999865 24093.39299999997 20.896967106119334
7.899999999999986 24075.090000000015 20.394995853293413
7.999999999999986 24055.760999999977 21.091057624304007
