# Rounds: 5000, repetitions: 1000
# Good arm ~ N(5.0,0.0), 7 bad arm(s) ~ N(0.5,0.0)
# Observation noise range from 0.5 to 8.0 with step size 0.1

# Observation noise | mean | standard deviation

0.5 24972.79350000001 2.483802936431767
0.6 24972.744000000006 2.3814145240035827
0.7 24972.38400000001 3.204186450693984
0.7999999999999999 24972.38400000001 3.3465270420606767
0.8999999999999999 24972.438000000013 2.946495857427554
0.9999999999999999 24971.780999999984 4.006943298150711
1.0999999999999999 24969.998999999993 4.9621186625897895
1.1999999999999997 24966.255000000023 5.797075217821524
1.2999999999999996 24958.379999999976 6.732936390048046
1.3999999999999995 24948.934500000018 5.481515005612705
1.4999999999999993 24943.26449999998 3.883538543856878
1.5999999999999992 24939.87600000004 3.7969119742944657
1.699999999999999 24936.15900000003 4.7416982930910745
1.799999999999999 24930.95250000001 5.694903482560123
1.8999999999999988 24923.55900000001 6.462567893939925
1.9999999999999987 24916.04399999997 5.870521870074824
2.0999999999999988 24908.808000000005 5.6531933095016536
2.199999999999999 24902.25600000002 6.016490851165801
2.299999999999999 24895.353 6.613934920690927
2.399999999999999 24887.221499999996 7.128745103926515
2.499999999999999 24879.756000000012 6.986148457502911
2.599999999999999 24871.682999999997 7.130242026141311
2.6999999999999993 24863.515499999976 7.5987005468039985
2.7999999999999994 24855.12750000002 7.808486807071941
2.8999999999999995 24846.01499999999 7.817729330943296
2.9999999999999996 24838.34250000001 8.096264153499657
3.0999999999999996 24828.415499999985 8.37578435213761
3.1999999999999997 24819.5505 8.437943982312808
3.3 24810.72150000005 8.928852790933588
3.4 24800.744999999974 8.956991833350184
3.5 24790.9125 9.67971025085676
3.6 24780.657000000007 9.732243706749523
3.7 24771.31499999999 9.792889036217904
3.8000000000000003 24760.703999999972 10.204386973920284
3.9000000000000004 24750.32249999999 10.11652548248844
4.0 24740.134500000007 10.817702271389825
4.1 24729.15900000003 10.79338761539751
4.199999999999999 24718.696500000027 11.243800994806461
4.299999999999999 24707.239499999974 12.094592548693804
4.399999999999999 24696.452999999998 11.77460965095796
4.499999999999998 24683.51099999997 11.840695971144712
4.599999999999998 24672.971999999983 11.810448878120722
4.6999999999999975 24660.37200000003 12.231669130978407
4.799999999999997 24649.5225 12.787484643725465
4.899999999999997 24637.584 13.112375009066003
4.9999999999999964 24624.628499999966 13.071480457520927
5.099999999999996 24611.911499999966 13.923820974881199
5.199999999999996 24599.932499999995 13.995251366474694
5.299999999999995 24588.196500000002 14.220895598436176
5.399999999999995 24575.254499999995 14.360700173022838
5.499999999999995 24561.38100000003 14.510440789028209
5.599999999999994 24547.638 14.817473249967804
5.699999999999994 24535.03800000002 14.970175755887563
5.799999999999994 24522.80700000002 14.84534051933921
5.899999999999993 24508.26300000002 16.22248439666386
5.999999999999993 24495.001500000035 15.846462006015969
6.0999999999999925 24481.276499999996 16.659737230658674
6.199999999999992 24466.885499999997 16.307500554172076
6.299999999999992 24452.36850000001 16.286549955698487
6.3999999999999915 24439.179000000026 17.266212123134626
6.499999999999991 24424.333499999957 17.415993930711867
6.599999999999991 24410.041499999985 17.993034125100394
6.69999999999999 24396.05999999997 17.910588744906907
6.79999999999999 24381.093000000026 18.822795983823625
6.89999999999999 24364.78500000004 18.520131486311534
6.999999999999989 24350.380499999996 19.15609369562785
7.099999999999989 24336.41250000001 19.015485332550227
7.199999999999989 24320.01900000002 19.454977130162217
7.299999999999988 24305.106000000025 20.07366972469695
7.399999999999988 24289.837500000005 19.95131320611874
7.499999999999988 24274.636499999993 20.284725480958326
7.599999999999987 24259.313999999962 19.551769118820875
7.699999999999987 24242.735999999983 21.554614480556253
7.7999999999999865 24226.270500000064 20.832536435209388
7.899999999999986 24210.98399999998 21.49008067847974
7.999999999999986 24193.047000000013 22.61530993029378
