# Rounds: 50, repetitions: 1000
# Good arm ~ N(5.0,1.0), 7 bad arm(s) ~ N(0.0,1.0)
# Observation noise range from 0.5 to 8.0 with step size 0.1

# Observation noise | mean | standard deviation

0.5 219.4228914405851 8.180906339468583
0.6 218.5937499420595 8.046937620472017
0.7 219.35698735378915 8.139238729619272
0.7999999999999999 218.65331168174683 8.163276569646595
0.8999999999999999 218.78059186309937 8.45323938841969
0.9999999999999999 218.65790602719372 8.50563435670743
1.0999999999999999 217.91082089521097 8.8597443817315
1.1999999999999997 217.58659932940358 9.224853089353592
1.2999999999999996 216.22687439324042 9.39462358638814
1.3999999999999995 214.95573692971635 9.570513892088695
1.4999999999999993 213.69868077366084 10.7308811463987
1.5999999999999992 212.85749459747217 10.944731759479822
1.699999999999999 210.54725782548206 11.278498329373233
1.799999999999999 209.1039259057897 11.907714365494366
1.8999999999999988 206.6271637591651 12.226084154020272
1.9999999999999987 204.93907459744474 12.228616141402933
2.0999999999999988 202.68994508212228 12.951999540071492
2.199999999999999 198.47739837958093 14.338859793097342
2.299999999999999 196.3653358716768 14.841009431870434
2.399999999999999 194.16210691405317 15.132803922628918
2.499999999999999 190.59215166187226 16.191373857566774
2.599999999999999 187.45327238607308 15.874771945744524
2.6999999999999993 185.11772311213244 16.36374002534146
2.7999999999999994 180.98026670567936 17.18976952972872
2.8999999999999995 177.57909883937293 17.517457544254004
2.9999999999999996 173.68137950461815 18.018200284206305
3.0999999999999996 169.36198873687636 18.979499717294154
3.1999999999999997 167.18005240811743 19.18484435141351
3.3 163.82423969365001 20.297982113839396
3.4 159.61740094800973 20.64677774313655
3.5 156.05636775492732 20.584182941670026
3.6 152.4674732646678 21.15669119060207
3.7 150.17490867363915 20.779745576749075
3.8000000000000003 145.0783506981185 21.480982016909064
3.9000000000000004 141.76405265010845 22.485725528600085
4.0 138.48615168445818 22.488575412005638
4.1 135.70723417455991 23.164071863585793
4.199999999999999 132.08230089413377 22.202085466241403
4.299999999999999 128.5359493890561 23.799206372124353
4.399999999999999 125.31512197115852 23.619101452780427
4.499999999999998 121.39825196743524 24.025208949710066
4.599999999999998 119.05397898062569 23.13784808075339
4.6999999999999975 113.89545414758206 23.296988076860533
4.799999999999997 110.03723625861052 23.736905189318414
4.899999999999997 108.71127462449932 23.804378255875484
4.9999999999999964 105.3276239280503 23.998624868359855
5.099999999999996 102.56281965074676 24.089185780960594
5.199999999999996 100.54165339270955 24.022822208804843
5.299999999999995 96.97210186661803 25.006998096528033
5.399999999999995 94.93821390788483 23.825016716839844
5.499999999999995 92.72231510716438 23.276514616352184
5.599999999999994 89.24005577912958 23.88215156593459
5.699999999999994 87.82368220809131 24.428526863857254
5.799999999999994 85.64117269581736 24.961205631505035
5.899999999999993 83.32111910487552 23.148512452415424
5.999999999999993 79.97503785811699 23.62928894588595
6.0999999999999925 78.76964933379975 22.358000303515638
6.199999999999992 77.76181441676447 23.722291105744805
6.299999999999992 75.72962222530046 22.785046553299434
6.3999999999999915 74.41390051231855 22.40709508396585
6.499999999999991 71.639059169387 22.474097104370095
6.599999999999991 70.31058393357196 22.765525922777798
6.69999999999999 69.00123454969557 21.44723254671138
6.79999999999999 68.90409052694285 21.146870525379484
6.89999999999999 65.29841962361085 21.5144829029773
6.999999999999989 65.30785288277774 22.206287789794192
7.099999999999989 63.784800440496895 21.66687400860301
7.199999999999989 62.071616020658624 21.1132984780617
7.299999999999988 63.28695677573684 20.68678206964
7.399999999999988 60.404747154244674 21.01659152047184
7.499999999999988 59.39089916030466 20.635191997769397
7.599999999999987 59.02653588756412 20.39076314041169
7.699999999999987 57.11094847202258 20.211004614769404
7.7999999999999865 57.27439318664231 20.05224402959957
7.899999999999986 56.21471490227675 19.827760949928027
7.999999999999986 55.3921478024879 18.997071325753108
