# Rounds: 50, repetitions: 1000
# Good arm ~ N(5.0,0.0), 7 bad arm(s) ~ N(0.1,0.0)
# Observation noise range from 0.5 to 4.0 with step size 0.1

# Observation noise | mean | standard deviation

0.5 220.80779999999965 2.497441966568244
0.6 220.98909999999995 2.535657853644845
0.7 220.44520000000006 2.9952977763101996
0.7999999999999999 220.34230000000025 3.044541006447394
0.8999999999999999 220.06300000000013 3.449528989623096
0.9999999999999999 219.96990000000017 3.799950475152728
1.0999999999999999 219.6563 3.9513609761148767
1.1999999999999997 219.28879999999992 4.50133720094336
1.2999999999999996 218.46559999999988 5.383918946568853
1.3999999999999995 217.58359999999993 6.023244184865044
1.4999999999999993 216.9906999999999 6.243558723639561
1.5999999999999992 215.6333999999999 7.065050557453869
1.699999999999999 214.2516000000001 7.505946754186108
1.799999999999999 211.91429999999986 7.825749028550476
1.8999999999999988 210.0278000000001 8.542536045114593
1.9999999999999987 207.4455000000002 8.919195692538711
2.0999999999999988 204.77990000000023 9.84038104389703
2.199999999999999 201.90850000000003 10.429411794553967
2.299999999999999 198.22370000000012 10.745690213670184
2.399999999999999 195.67569999999995 11.038195562286113
2.499999999999999 192.6867000000001 11.746371795595431
2.599999999999999 189.60459999999995 11.432580756012324
2.6999999999999993 186.00309999999993 12.287894561019924
2.7999999999999994 182.3918000000001 12.298097249410409
2.8999999999999995 179.6673999999999 13.229467716278554
2.9999999999999996 175.60530000000014 13.768639633142694
3.0999999999999996 172.3223000000001 13.544322847281506
3.1999999999999997 169.09809999999993 14.933611054568406
3.3 166.04050000000026 14.48587416417457
3.4 162.0322999999999 15.646634906390965
3.5 158.4994 16.234714829820827
3.6 155.01549999999983 16.18624119906022
3.7 151.58060000000003 16.611112928178898
3.8000000000000003 147.4351999999998 17.784279055996056
3.9000000000000004 144.62750000000005 17.453950674392978
4.0 140.10479999999967 18.564243267316026
