# Rounds: 1000, repetitions: 1000
# Good arm ~ N(5.0,0.0), 4 bad arm(s) ~ N(3.9,0.0)
# Observation noise range from 0.5 to 4.0 with step size 0.1

# Observation noise | mean | standard deviation

0.5 4991.864900000006 4.85909135114366
0.6 4989.033499999998 4.4706973600194635
0.7 4985.685099999995 4.771684919079101
0.7999999999999999 4982.047400000001 3.9368403513416736
0.8999999999999999 4978.272199999996 3.5133589128995726
0.9999999999999999 4974.152700000003 3.197880415079539
1.0999999999999999 4969.163100000007 3.7447445175207346
1.1999999999999997 4964.6916 3.259796882585783
1.2999999999999996 4959.7482000000045 2.9944186920508233
1.3999999999999995 4954.354899999993 3.6015617775122806
1.4999999999999993 4949.4203 3.5360516924348784
1.5999999999999992 4943.678300000001 4.404813445708231
1.699999999999999 4937.992399999995 3.7841884628441482
1.799999999999999 4932.358200000001 4.0658681783899695
1.8999999999999988 4926.658000000003 4.084154296340483
1.9999999999999987 4920.6519999999955 4.602827611590727
2.0999999999999988 4914.687799999991 4.590442606473107
2.199999999999999 4908.501399999992 5.219548038070249
2.299999999999999 4902.1763999999985 5.127126921626857
2.399999999999999 4895.813999999996 5.539213562130185
2.499999999999999 4889.737600000002 5.493206855886816
2.599999999999999 4883.441200000005 6.078978247743354
2.6999999999999993 4876.746599999998 5.921039363755938
2.7999999999999994 4869.835299999993 6.587129434297233
2.8999999999999995 4863.712700000007 6.617113789629478
2.9999999999999996 4857.3107000000045 6.924712785174359
3.0999999999999996 4850.854799999999 7.261679485418707
3.1999999999999997 4844.229499999995 7.279870621533443
3.3 4837.274199999999 7.7144985480488835
3.4 4830.2001 8.37667945839808
3.5 4823.795900000005 8.025921043630976
3.6 4816.7647 8.719934699937426
3.7 4810.128400000005 9.172258378598144
3.8000000000000003 4803.933199999993 8.877223826335673
3.9000000000000004 4796.7887000000055 9.515205801844308
4.0 4790.460400000004 9.986226342145272
