# Rounds: 1000, repetitions: 1000
# Good arm ~ N(5.0,0.0), 4 bad arm(s) ~ N(3.2,0.0)
# Observation noise range from 0.5 to 4.0 with step size 0.1

# Observation noise | mean | standard deviation

0.5 4992.855399999995 6.844605135393833
0.6 4991.264199999997 5.650019564663553
0.7 4988.512000000006 5.1634055386688535
0.7999999999999999 4986.699400000005 4.7378103050340785
0.8999999999999999 4984.111000000004 4.361369113081411
0.9999999999999999 4981.007799999998 4.481587194709421
1.0999999999999999 4977.6904 4.627444335816583
1.1999999999999997 4974.5403999999935 4.059789370118827
1.2999999999999996 4970.936799999993 3.8440789147340566
1.3999999999999995 4967.318800000003 4.103384496281622
1.4999999999999993 4963.245400000004 4.238889834264086
1.5999999999999992 4959.256599999995 3.9069298100351366
1.699999999999999 4954.844800000012 4.333965414746253
1.799999999999999 4950.512199999992 4.290363431969271
1.8999999999999988 4946.264200000004 4.738401714799154
1.9999999999999987 4941.764200000008 4.4038701652561665
2.0999999999999988 4936.938399999996 4.911098077245584
2.199999999999999 4932.238600000004 5.200853672131118
2.299999999999999 4926.995199999996 5.079403242241971
2.399999999999999 4922.2072000000035 5.3568800923976125
2.499999999999999 4917.4605999999885 5.526832140884566
2.599999999999999 4912.373799999999 5.439888413005086
2.6999999999999993 4907.0961999999945 6.1495204822948475
2.7999999999999994 4901.869000000002 6.178946380927755
2.8999999999999995 4896.089200000004 6.62280188929631
2.9999999999999996 4890.912400000001 6.5360727112302
3.0999999999999996 4885.420599999999 6.531961586090611
3.1999999999999997 4879.131399999997 7.203978855559863
3.3 4873.839399999996 7.458710344288861
3.4 4868.259399999999 7.878381847850646
3.5 4862.729799999999 8.212083187003898
3.6 4856.843799999999 8.019068962605882
3.7 4851.080199999998 8.516923502412597
3.8000000000000003 4845.221200000003 9.108934253975313
3.9000000000000004 4838.919400000009 8.717868137616424
4.0 4832.610400000002 9.032556610335766
