# Rounds: 1000, repetitions: 1000
# Good arm ~ N(5.0,0.0), 4 bad arm(s) ~ N(2.7,0.0)
# Observation noise range from 0.5 to 4.0 with step size 0.1

# Observation noise | mean | standard deviation

0.5 4992.359199999996 5.901895265737003
0.6 4991.945199999999 5.777228862814238
0.7 4990.4364000000005 5.945603858755256
0.7999999999999999 4987.956999999993 5.27355301114543
0.8999999999999999 4985.473000000001 4.4131130244495465
0.9999999999999999 4983.543300000005 4.216044371225277
1.0999999999999999 4980.914400000001 4.7356857327487285
1.1999999999999997 4978.016400000005 4.158769818877539
1.2999999999999996 4975.074699999989 4.259851669512238
1.3999999999999995 4971.787999999992 4.177967377973583
1.4999999999999993 4968.496700000007 4.440898635489345
1.5999999999999992 4965.138699999997 4.235267382326712
1.699999999999999 4961.403499999993 4.301967535288364
1.799999999999999 4957.698199999998 4.617030835259211
1.8999999999999988 4953.687000000002 4.311143346834782
1.9999999999999987 4949.6619999999975 4.7105631728494926
2.0999999999999988 4945.632400000005 4.727538456729933
2.199999999999999 4941.384300000002 4.721969981957894
2.299999999999999 4937.074100000012 5.185974693683389
2.399999999999999 4932.692600000002 5.317678341432853
2.499999999999999 4928.212199999997 5.91221324255366
2.599999999999999 4923.678899999998 5.636434527623422
2.6999999999999993 4919.147899999996 5.913586567904225
2.7999999999999994 4914.2718999999925 6.078345718752584
2.8999999999999995 4909.377499999994 6.468802760879361
2.9999999999999996 4904.768299999998 6.467731956928034
3.0999999999999996 4899.694500000005 6.80719749145632
3.1999999999999997 4894.9703000000045 6.695154442057666
3.3 4889.443399999999 7.407931822978408
3.4 4884.203999999992 7.443645064876041
3.5 4878.939299999995 7.635702289865734
3.6 4873.610199999991 7.921483817181442
3.7 4868.527199999992 8.05044531872818
3.8000000000000003 4862.850799999994 8.702970818120852
3.9000000000000004 4856.831699999992 8.91105897646761
4.0 4850.934500000005 9.227808634892899
