# Rounds: 1000, repetitions: 1000
# Good arm ~ N(5.0,1.0), 4 bad arm(s) ~ N(4.1,1.0)
# Observation noise range from 0.5 to 4.0 with step size 0.1

# Observation noise | mean | standard deviation

0.5 4967.446479279589 114.64125294444914
0.6 4971.625845284835 83.98808253668196
0.7 4973.304036625199 70.64783116775547
0.7999999999999999 4971.079865657161 57.14487612668431
0.8999999999999999 4966.349938022338 46.084886856949694
0.9999999999999999 4965.865074745514 36.51190562386042
1.0999999999999999 4963.9482602621765 36.83632488526668
1.1999999999999997 4957.999839290535 36.53795305868107
1.2999999999999996 4948.921860034998 37.540753941131015
1.3999999999999995 4944.781060765786 36.03154509083809
1.4999999999999993 4939.334547235409 34.62061726920411
1.5999999999999992 4933.4191187735005 36.70053049575694
1.699999999999999 4927.723507175706 35.452789699185196
1.799999999999999 4922.508809977277 36.59493889643271
1.8999999999999988 4913.744919375022 37.837171220807974
1.9999999999999987 4908.881081048768 37.659475160599726
2.0999999999999988 4902.270962023944 37.633322833656464
2.199999999999999 4894.96451640612 39.13536321674986
2.299999999999999 4889.925526444236 40.52165708555165
2.399999999999999 4879.671983558561 38.08220586357588
2.499999999999999 4873.264884492619 41.013684358341486
2.599999999999999 4868.323657016321 39.548793736470955
2.6999999999999993 4861.828944957518 41.33933650730089
2.7999999999999994 4854.835948684088 40.80890012362154
2.8999999999999995 4849.249258002994 40.147138593254454
2.9999999999999996 4838.436357656213 41.69378280954738
3.0999999999999996 4832.698096084991 43.131457488398844
3.1999999999999997 4822.800358118869 43.53340655120789
3.3 4819.073555257245 42.834106554375175
3.4 4813.643208806475 43.85522713446195
3.5 4805.813988390647 43.93161522309772
3.6 4796.298051882228 45.42440067492569
3.7 4792.169363140848 43.93199421971903
3.8000000000000003 4783.925467723512 45.14522542355098
3.9000000000000004 4777.7404662938125 45.41376711346918
4.0 4775.463069594186 46.642758999047985
