# Rounds: 1000, repetitions: 1000
# Good arm ~ N(5.0,1.0), 4 bad arm(s) ~ N(2.3,1.0)
# Observation noise range from 0.5 to 4.0 with step size 0.1

# Observation noise | mean | standard deviation

0.5 4990.867142361077 33.125768745498995
0.6 4989.646220417433 32.074015520598415
0.7 4988.464054689381 31.272248947333875
0.7999999999999999 4985.556700038763 32.386710057407285
0.8999999999999999 4982.656478648025 31.966429947303755
0.9999999999999999 4982.295832670569 32.54161574661391
1.0999999999999999 4980.5123698956095 31.15256039421307
1.1999999999999997 4978.205060882178 32.94228389612162
1.2999999999999996 4976.622519929085 31.856347036744207
1.3999999999999995 4972.747977522064 32.79190362086989
1.4999999999999993 4968.704322486424 32.4622893555413
1.5999999999999992 4965.987981719955 31.78596341812103
1.699999999999999 4964.319128140198 33.70982571363355
1.799999999999999 4959.545293399579 33.31022797912117
1.8999999999999988 4957.270201943189 33.162064593798995
1.9999999999999987 4951.867325893861 33.51901774060518
2.0999999999999988 4948.497999228528 36.29588929375788
2.199999999999999 4943.648755341601 32.47433686574991
2.299999999999999 4941.278426967507 32.37561172131458
2.399999999999999 4938.205395104716 33.46309176139856
2.499999999999999 4932.775117728065 33.60867083800477
2.599999999999999 4928.013907291618 33.853953020654004
2.6999999999999993 4924.67391008049 33.13792505002575
2.7999999999999994 4920.34058652606 34.24843335727497
2.8999999999999995 4916.015527085992 34.1325434578713
2.9999999999999996 4911.288218525776 33.773850046735106
3.0999999999999996 4904.996215176711 35.094386864630955
3.1999999999999997 4902.813331441259 32.98769019656626
3.3 4897.05317014614 35.17176528886639
3.4 4893.054783308404 34.29476274639939
3.5 4884.451595868711 36.513995290687596
3.6 4882.880005423984 34.571428818020536
3.7 4875.849458136494 36.11321511018715
3.8000000000000003 4872.138934845666 36.24677787459966
3.9000000000000004 4866.277872981814 34.7434600593041
4.0 4861.5369848409655 36.24222563466149
