# Rounds: 1000, repetitions: 1000
# Good arm ~ N(5.0,0.0), 4 bad arm(s) ~ N(0.0,0.0)
# Observation noise range from 0.5 to 4.0 with step size 0.1

# Observation noise | mean | standard deviation

0.5 4984.455000000002 1.9446739461299702
0.6 4984.25999999999 2.3038462856075395
0.7 4983.975000000006 3.1119220843490285
0.7999999999999999 4984.080000000005 2.5218961041168932
0.8999999999999999 4984.100000000001 2.7563739945075603
0.9999999999999999 4983.735000000005 3.063357497772552
1.0999999999999999 4983.4000000000015 3.6815151165727498
1.1999999999999997 4983.179999999994 3.89907717322998
1.2999999999999996 4982.284999999993 4.585280776550063
1.3999999999999995 4980.544999999998 5.482520682408221
1.4999999999999993 4978.705000000007 5.429314178830778
1.5999999999999992 4975.6 5.627759027505691
1.699999999999999 4971.739999999997 5.417725699198119
1.799999999999999 4968.355000000001 5.310100956871962
1.8999999999999988 4965.689999999991 4.795507991537221
1.9999999999999987 4963.264999999989 4.542621535018121
2.0999999999999988 4960.730000000003 5.435682721300697
2.199999999999999 4958.2100000000055 5.502379137807215
2.299999999999999 4955.170000000004 5.941919421063067
2.399999999999999 4951.92 6.0041360452315775
2.499999999999999 4948.504999999996 6.182896020733578
2.599999999999999 4945.530000000005 6.0336974986740595
2.6999999999999993 4941.510000000001 6.376563381678273
2.7999999999999994 4938.17 6.327806977234795
2.8999999999999995 4934.69 6.488142723152429
2.9999999999999996 4930.705000000001 6.51309414912725
3.0999999999999996 4927.165000000003 7.241561655831923
3.1999999999999997 4923.3099999999995 7.193444630053505
3.3 4919.384999999998 7.2628867900114935
3.4 4914.905000000009 7.935928046167885
3.5 4911.394999999997 7.448789127063453
3.6 4906.649999999999 7.857432102108106
3.7 4903.090000000001 8.100464030999554
3.8000000000000003 4898.465 8.496526700126779
3.9000000000000004 4893.914999999999 8.72776884140206
4.0 4889.275000000002 8.858772649348902
