# Rounds: 1000, repetitions: 1000
# Good arm ~ N(5.0,0.0), 4 bad arm(s) ~ N(2.6,0.0)
# Observation noise range from 0.5 to 4.0 with step size 0.1

# Observation noise | mean | standard deviation

0.5 4992.167199999992 5.542869975704523
0.6 4991.644000000002 5.553876983652775
0.7 4990.732000000004 5.86009869855076
0.7999999999999999 4988.363200000004 5.749548074680599
0.8999999999999999 4985.7855999999965 5.161165592215698
0.9999999999999999 4983.584800000005 4.317537503032173
1.0999999999999999 4981.537600000004 4.142210055531122
1.1999999999999997 4978.6984 4.469923674701541
1.2999999999999996 4975.439200000002 4.425323360710209
1.3999999999999995 4972.568800000001 4.010674765182561
1.4999999999999993 4969.388800000004 4.001985813374355
1.5999999999999992 4965.877599999993 3.8750941400944674
1.699999999999999 4962.2704 4.649647627838382
1.799999999999999 4958.6536 4.618976291558744
1.8999999999999988 4954.650399999992 4.571472213433874
1.9999999999999987 4951.184799999995 4.661095877020217
2.0999999999999988 4947.025600000006 4.733268265001256
2.199999999999999 4942.897599999998 4.966844449324303
2.299999999999999 4938.817600000004 5.023174546292665
2.399999999999999 4934.632000000001 5.238581748788387
2.499999999999999 4930.132000000005 5.392273417827851
2.599999999999999 4925.288799999991 5.808539721280509
2.6999999999999993 4920.805599999995 6.019518522543396
2.7999999999999994 4916.358399999998 6.217044400764835
2.8999999999999995 4911.481600000009 6.1831944279096644
2.9999999999999996 4906.744000000001 6.697758129700104
3.0999999999999996 4901.7016 6.638492827971338
3.1999999999999997 4897.052799999994 7.088024566284497
3.3 4891.448800000006 7.400620767729354
3.4 4886.867199999998 7.633672583829941
3.5 4881.966399999998 7.412793032355662
3.6 4876.4631999999965 8.131088510178706
3.7 4871.413599999999 8.383623332436885
3.8000000000000003 4865.668000000001 8.499700047701685
3.9000000000000004 4860.2872000000025 8.807135845540332
4.0 4854.875199999989 8.87642359601299
