# Rounds: 1000, repetitions: 1000
# Good arm ~ N(5.0,0.0), 4 bad arm(s) ~ N(1.2,0.0)
# Observation noise range from 0.5 to 4.0 with step size 0.1

# Observation noise | mean | standard deviation

0.5 4988.409199999997 3.3449041456735467
0.6 4988.241999999993 3.5008473162839633
0.7 4988.071 3.782796392690103
0.7999999999999999 4987.880999999998 3.998282789556815
0.8999999999999999 4987.732800000003 3.925477491151105
0.9999999999999999 4986.630799999996 5.168969878961406
1.0999999999999999 4985.840400000003 4.721459522226283
1.1999999999999997 4983.377999999987 5.419410116055699
1.2999999999999996 4980.064400000004 5.229730654892584
1.3999999999999995 4976.830599999999 4.8396741714795235
1.4999999999999993 4974.086999999996 4.767976992877017
1.5999999999999992 4972.278200000004 4.122353521783255
1.699999999999999 4969.861399999999 4.469443585723728
1.799999999999999 4966.984800000003 4.895431974219968
1.8999999999999988 4964.127199999998 5.191320638331898
1.9999999999999987 4960.688199999993 5.311895800653277
2.0999999999999988 4957.678599999996 5.0089831255407615
2.199999999999999 4954.281399999995 5.166378374210061
2.299999999999999 4950.945000000007 5.035725720641863
2.399999999999999 4947.430000000007 5.69460872831218
2.499999999999999 4944.169599999997 5.438096057328346
2.599999999999999 4940.202399999997 5.822368436831795
2.6999999999999993 4936.322599999998 6.144125610656089
2.7999999999999994 4932.811400000006 6.048478662782469
2.8999999999999995 4928.612400000002 6.406622437060861
2.9999999999999996 4924.641399999993 6.322358599309213
3.0999999999999996 4920.142200000021 6.874442313171168
3.1999999999999997 4915.893800000001 7.196949189596826
3.3 4911.881000000008 7.287338629726613
3.4 4907.3741999999975 7.459403264139714
3.5 4903.042199999995 7.891523002266214
3.6 4898.447999999998 8.047467784200142
3.7 4893.9374000000025 8.422280929537882
3.8000000000000003 4889.780199999995 8.303442365375698
3.9000000000000004 4884.3082 8.855965270984433
4.0 4879.915399999993 8.694734109864566
