# Rounds: 1000, repetitions: 1000
# Good arm ~ N(5.0,1.0), 4 bad arm(s) ~ N(3.3,1.0)
# Observation noise range from 0.5 to 4.0 with step size 0.1

# Observation noise | mean | standard deviation

0.5 4985.886591421655 40.11557482905896
0.6 4986.177329261402 51.148536651419796
0.7 4983.479955282409 45.244102308970454
0.7999999999999999 4982.538466560519 34.27536520151939
0.8999999999999999 4982.231475804575 32.902842146091174
0.9999999999999999 4977.807969413221 33.04124346595735
1.0999999999999999 4973.674503035116 32.74295394945329
1.1999999999999997 4971.916116000894 31.701269913694112
1.2999999999999996 4967.701323192799 32.34772218029963
1.3999999999999995 4961.486067940887 33.25639780526219
1.4999999999999993 4962.166901591339 32.29835985215048
1.5999999999999992 4957.652182962235 32.833477608321154
1.699999999999999 4951.599668256477 33.47278427160481
1.799999999999999 4947.642625552886 33.431340271071555
1.8999999999999988 4942.750939585331 33.66668840280698
1.9999999999999987 4938.472406431169 32.526901597588235
2.0999999999999988 4934.359364898649 34.934590883509635
2.199999999999999 4929.693330742793 34.336084722505234
2.299999999999999 4924.375951691428 35.20041899697475
2.399999999999999 4918.85081114889 34.471392114068856
2.499999999999999 4912.525504782487 34.85371485214334
2.599999999999999 4905.766603886423 35.922188808818106
2.6999999999999993 4903.616516927862 36.22169429243464
2.7999999999999994 4895.899819353286 35.32009541079389
2.8999999999999995 4891.417499249442 36.838042250285156
2.9999999999999996 4885.71045084921 36.424657565960366
3.0999999999999996 4880.860463776084 36.72188297093337
3.1999999999999997 4874.4061876216465 36.84761711936893
3.3 4868.523899105753 37.1908206622701
3.4 4861.389092910565 37.14688373917984
3.5 4857.735279695384 37.870093582152684
3.6 4849.548676597643 38.09175715361015
3.7 4846.756701350501 37.68016645496648
3.8000000000000003 4838.553793644282 39.02454319006347
3.9000000000000004 4830.685587813931 36.58384980777376
4.0 4827.264281841233 39.95577863560398
