# Rounds: 1000, repetitions: 1000
# Good arm ~ N(5.0,0.0), 4 bad arm(s) ~ N(1.1,0.0)
# Observation noise range from 0.5 to 4.0 with step size 0.1

# Observation noise | mean | standard deviation

0.5 4988.093499999996 2.958222241284108
0.6 4987.886799999994 3.3050611475717417
0.7 4987.742500000003 3.949220187592595
0.7999999999999999 4987.446100000006 4.129435436839537
0.8999999999999999 4987.247200000006 4.33326774725129
0.9999999999999999 4986.8338 4.8501052649483665
1.0999999999999999 4985.839300000006 4.977750848878614
1.1999999999999997 4983.838600000007 4.994686870759329
1.2999999999999996 4980.675699999992 5.16891644420831
1.3999999999999995 4977.481599999999 4.690243044856081
1.4999999999999993 4974.365500000001 4.372928338339544
1.5999999999999992 4972.232200000007 4.018055242020388
1.699999999999999 4969.857099999996 4.644599217574186
1.799999999999999 4967.127099999997 4.710673628689919
1.8999999999999988 4964.584300000003 4.812596450419856
1.9999999999999987 4961.257600000002 4.834868994936501
2.0999999999999988 4958.0986 5.137143981658421
2.199999999999999 4954.97470000001 5.21326270372206
2.299999999999999 4951.382800000005 5.100219249835835
2.399999999999999 4947.927399999996 5.446045230132322
2.499999999999999 4944.612400000007 5.635239317203949
2.599999999999999 4940.65 5.75058163920738
2.6999999999999993 4937.034699999996 5.979886700846099
2.7999999999999994 4933.204899999998 6.07968490619036
2.8999999999999995 4929.328299999998 6.426492738571981
2.9999999999999996 4925.307400000005 6.507776609287987
3.0999999999999996 4921.247500000006 6.7418845107845895
3.1999999999999997 4917.051099999991 7.009841415229535
3.3 4912.488100000001 7.365453026683982
3.4 4908.634900000001 7.084292426854516
3.5 4904.259100000002 7.889702440180802
3.6 4899.384100000004 7.757369010429
3.7 4895.0707 7.90473252591809
3.8000000000000003 4890.281500000005 8.3256846430053
3.9000000000000004 4885.531299999994 8.491843245827802
4.0 4880.722600000002 8.539876974449854
