# Rounds: 1000, repetitions: 1000
# Good arm ~ N(5.0,0.0), 4 bad arm(s) ~ N(0.1,0.0)
# Observation noise range from 0.5 to 4.0 with step size 0.1

# Observation noise | mean | standard deviation

0.5 4984.7580999999955 2.400895393116541
0.6 4984.645400000001 2.54872808570358
0.7 4984.625799999994 2.4267681313967704
0.7999999999999999 4984.292599999998 3.0886380372138293
0.8999999999999999 4984.366100000002 2.8182873404840896
0.9999999999999999 4983.934900000005 3.8024795648155756
1.0999999999999999 4983.890800000006 3.6328987480127366
1.1999999999999997 4983.312600000002 4.085610536193125
1.2999999999999996 4982.450199999997 4.6909983399510775
1.3999999999999995 4980.970400000003 5.025393359570633
1.4999999999999993 4978.025500000001 5.7255411597132415
1.5999999999999992 4974.9286999999895 5.692401052257262
1.699999999999999 4971.616300000004 5.229863840081038
1.799999999999999 4968.117700000005 5.186578574292338
1.8999999999999988 4965.677499999993 4.672463554236258
1.9999999999999987 4963.144199999995 4.753700035133016
2.0999999999999988 4961.100900000001 5.031451549472966
2.199999999999999 4958.008999999999 5.862274751772032
2.299999999999999 4955.010200000011 5.8976230735709265
2.399999999999999 4951.697799999997 5.954241189954242
2.499999999999999 4948.174699999995 6.139997514615175
2.599999999999999 4944.852500000004 6.345551179351712
2.6999999999999993 4941.251 6.395586175052566
2.7999999999999994 4937.884700000001 6.498645112505964
2.8999999999999995 4934.101900000005 6.819588930660083
2.9999999999999996 4929.990800000004 6.833842020178355
3.0999999999999996 4926.957700000004 7.207889731702599
3.1999999999999997 4922.430099999998 7.42328830096199
3.3 4918.897199999993 7.332101463555543
3.4 4914.604800000003 7.750365483325629
3.5 4910.2683000000025 7.822615830297903
3.6 4906.441400000001 7.820915084103086
3.7 4902.031399999998 7.763546012402259
3.8000000000000003 4897.724299999996 8.448093856000858
3.9000000000000004 4893.186900000003 8.794729424812145
4.0 4888.527 8.746584118027666
