# Rounds: 1000, repetitions: 1000
# Good arm ~ N(5.0,0.0), 4 bad arm(s) ~ N(1.3,0.0)
# Observation noise range from 0.5 to 4.0 with step size 0.1

# Observation noise | mean | standard deviation

0.5 4988.742200000002 3.2457532367808177
0.6 4988.290799999998 4.061496166575838
0.7 4988.2760000000035 4.121542321887573
0.7999999999999999 4988.190899999999 4.14235516298343
0.8999999999999999 4987.628499999999 4.659004622671404
0.9999999999999999 4987.099399999998 4.932994432803774
1.0999999999999999 4985.608299999995 4.683857345140694
1.1999999999999997 4982.925800000006 5.489290178763217
1.2999999999999996 4979.710500000003 4.941347656931881
1.3999999999999995 4976.769000000003 4.163718957321203
1.4999999999999993 4974.386200000005 4.257811470523165
1.5999999999999992 4972.0996 4.169040745871893
1.699999999999999 4969.457800000001 4.464936149018707
1.799999999999999 4966.8012 4.84790477843157
1.8999999999999988 4963.815299999997 4.803626831961438
1.9999999999999987 4960.544499999998 4.867301138245895
2.0999999999999988 4956.829700000005 5.167549852829814
2.199999999999999 4953.762399999997 5.181132151409593
2.299999999999999 4950.473100000001 5.166478383666027
2.399999999999999 4946.7879000000075 5.351334447627961
2.499999999999999 4943.428299999997 5.602063211194701
2.599999999999999 4939.358299999996 5.955172137326013
2.6999999999999993 4935.909900000001 5.878921134332649
2.7999999999999994 4931.717799999994 6.247650462077355
2.8999999999999995 4927.8142999999955 6.147390985281878
2.9999999999999996 4923.7998 6.788719074071725
3.0999999999999996 4919.711299999999 6.636954985645122
3.1999999999999997 4915.197300000001 6.87942942832164
3.3 4911.075500000001 7.30191945845591
3.4 4906.805699999997 7.404146060747829
3.5 4902.103000000004 7.729603985831102
3.6 4897.625999999991 7.79817642500821
3.7 4892.886300000005 7.9949697842987755
3.8000000000000003 4888.1503 8.364414105801531
3.9000000000000004 4883.839799999997 8.663822353775297
4.0 4878.515499999999 8.505220074666928
