# Rounds: 1000, repetitions: 1000
# Good arm ~ N(5.0,0.0), 4 bad arm(s) ~ N(2.8,0.0)
# Observation noise range from 0.5 to 4.0 with step size 0.1

# Observation noise | mean | standard deviation

0.5 4992.552399999995 5.519909749592193
0.6 4991.991400000001 6.236317639256167
0.7 4990.3326 5.666760045158921
0.7999999999999999 4987.5407999999925 5.500067827409647
0.8999999999999999 4985.189000000006 5.009124707005241
0.9999999999999999 4983.417999999998 4.457922057311968
1.0999999999999999 4980.320400000005 4.576213015754981
1.1999999999999997 4977.348199999997 4.442320448928774
1.2999999999999996 4974.254999999999 4.541087587404202
1.3999999999999995 4970.983599999996 4.043414428455242
1.4999999999999993 4967.503199999995 4.174011515572477
1.5999999999999992 4963.7808 4.2145787492979405
1.699999999999999 4960.538000000001 4.3367272456545765
1.799999999999999 4956.494399999997 4.385494407840554
1.8999999999999988 4952.545400000002 4.4971194027868595
1.9999999999999987 4948.668999999992 4.607075443721651
2.0999999999999988 4944.341599999998 4.763141500832879
2.199999999999999 4939.877800000003 4.978478925576702
2.299999999999999 4935.543800000006 5.0916172407325515
2.399999999999999 4931.007399999997 5.301094872462252
2.499999999999999 4926.534800000001 5.363845616700635
2.599999999999999 4921.897199999986 5.7325574026234625
2.6999999999999993 4916.619399999998 6.122492021109309
2.7999999999999994 4912.472400000011 5.948120575305895
2.8999999999999995 4907.071400000003 6.279054751200004
2.9999999999999996 4902.590000000002 6.586221854623247
3.0999999999999996 4897.111999999996 6.7327784982356835
3.1999999999999997 4892.382000000004 7.071633757767878
3.3 4886.862199999999 7.365765789492898
3.4 4881.591000000009 7.552687076933615
3.5 4875.743400000003 7.63943436370751
3.6 4870.7582 8.034059925024039
3.7 4865.374799999996 8.42962535012926
3.8000000000000003 4859.993600000008 8.290368462815605
3.9000000000000004 4854.465000000003 8.604129592587759
4.0 4848.470000000005 8.963508491906646
