# Rounds: 1000, repetitions: 1000
# Good arm ~ N(5.0,1.0), 4 bad arm(s) ~ N(3.4,1.0)
# Observation noise range from 0.5 to 4.0 with step size 0.1

# Observation noise | mean | standard deviation

0.5 4984.382284195231 45.79163754741456
0.6 4983.305673009806 48.093894801327664
0.7 4983.823989522687 35.335242366343714
0.7999999999999999 4982.764812059105 38.90367587107164
0.8999999999999999 4980.887009992839 35.262617466908004
0.9999999999999999 4975.346376536287 33.78367683634833
1.0999999999999999 4973.505693852711 31.641484185673644
1.1999999999999997 4970.752089001541 34.13639554872734
1.2999999999999996 4966.331180827066 34.565717429874404
1.3999999999999995 4962.042130203858 32.63293594155343
1.4999999999999993 4958.268535688148 32.3390428130166
1.5999999999999992 4955.947068890634 32.73474229790027
1.699999999999999 4949.025994412084 34.282190559094346
1.799999999999999 4944.504179564428 34.19785300312602
1.8999999999999988 4941.331646536137 35.02468063808618
1.9999999999999987 4935.877067877652 32.94594764980345
2.0999999999999988 4928.531037901404 34.833086589073915
2.199999999999999 4925.350556555376 33.81247412992452
2.299999999999999 4920.587105446897 33.67781847764464
2.399999999999999 4912.786727380436 35.95133376536964
2.499999999999999 4909.386689291882 35.742568919640846
2.599999999999999 4903.3566889628555 35.20290099127145
2.6999999999999993 4898.937162088899 35.749809161508196
2.7999999999999994 4894.231035534433 36.29382247073036
2.8999999999999995 4886.60032251598 36.119394142235265
2.9999999999999996 4880.265774670881 37.52454219894313
3.0999999999999996 4876.119171899595 37.69341771282395
3.1999999999999997 4870.5780227435935 36.78409182373836
3.3 4865.5067709911345 37.1210852082466
3.4 4857.613491063833 37.431037613686186
3.5 4851.152438601553 38.40795526408095
3.6 4845.387583534348 38.30839830178401
3.7 4840.389489274143 37.314908035703056
3.8000000000000003 4832.811813712037 39.10517146815379
3.9000000000000004 4827.263596149741 39.088305700984385
4.0 4821.631032466531 39.12404205524405
