# Rounds: 1000, repetitions: 1000
# Good arm ~ N(5.0,0.0), 4 bad arm(s) ~ N(1.9,0.0)
# Observation noise range from 0.5 to 4.0 with step size 0.1

# Observation noise | mean | standard deviation

0.5 4990.5508999999975 3.8365059582866925
0.6 4990.371099999999 4.1704493088201895
0.7 4990.151000000003 4.7015873834190725
0.7999999999999999 4989.335699999994 5.5188362054933995
0.8999999999999999 4988.421200000007 5.255181013770023
0.9999999999999999 4986.244999999997 5.088340221153285
1.0999999999999999 4983.129500000005 5.265311315891276
1.1999999999999997 4980.395300000001 4.4677744928452485
1.2999999999999996 4978.026900000002 4.190652450151238
1.3999999999999995 4975.962299999989 4.248458321333634
1.4999999999999993 4973.060699999991 4.487282163092912
1.5999999999999992 4970.0444000000025 4.263729356798783
1.699999999999999 4966.770800000004 4.864371436215455
1.799999999999999 4964.138900000007 4.703979614561892
1.8999999999999988 4960.3569000000025 4.929611897854113
1.9999999999999987 4957.157699999997 4.778312775759228
2.0999999999999988 4953.8314000000055 4.915703223159228
2.199999999999999 4950.334600000004 4.888308337083258
2.299999999999999 4946.524699999997 5.149164379178822
2.399999999999999 4942.569099999993 5.35381906386171
2.499999999999999 4938.656900000008 5.730907056102542
2.599999999999999 4934.673400000001 5.676265711930006
2.6999999999999993 4930.9348 5.617435762387005
2.7999999999999994 4926.66609999999 6.0988192616593295
2.8999999999999995 4921.830099999994 6.383289933911878
2.9999999999999996 4917.490100000001 6.6307645885696145
3.0999999999999996 4913.289600000005 6.9843075814566555
3.1999999999999997 4908.7357000000075 6.8376303423553795
3.3 4904.559999999991 7.276426759501308
3.4 4899.792200000006 7.348880540953546
3.5 4894.732999999996 7.936032485544165
3.6 4890.287599999995 8.10804085871344
3.7 4885.110600000004 7.667624149637244
3.8000000000000003 4880.203300000005 8.247415290196594
3.9000000000000004 4875.075900000011 8.504744550535932
4.0 4869.8617 8.757888085247137
