# Rounds: 1000, repetitions: 1000
# Good arm ~ N(5.0,0.0), 4 bad arm(s) ~ N(1.7,0.0)
# Observation noise range from 0.5 to 4.0 with step size 0.1

# Observation noise | mean | standard deviation

0.5 4989.925599999993 3.897313650926003
0.6 4989.813400000001 3.9199319262338093
0.7 4989.5625999999975 4.355572551600157
0.7999999999999999 4989.410800000009 4.3699496358448675
0.8999999999999999 4988.562699999994 5.085656556690895
0.9999999999999999 4986.4407999999985 5.759109540780008
1.0999999999999999 4984.404699999996 4.77419111586573
1.1999999999999997 4981.065099999998 4.942552054436074
1.2999999999999996 4978.533999999997 4.401981535790577
1.3999999999999995 4975.986399999994 4.3234439058703895
1.4999999999999993 4973.679699999992 4.57718784392334
1.5999999999999992 4971.155199999998 4.665110525616409
1.699999999999999 4968.049899999998 4.919561166615632
1.799999999999999 4964.5651 4.842286622013371
1.8999999999999988 4961.911900000005 4.569837174539373
1.9999999999999987 4958.463399999992 4.860941183473578
2.0999999999999988 4955.206299999996 4.8468858675043345
2.199999999999999 4951.444299999994 5.235547580575443
2.299999999999999 4947.943000000002 5.253569357207718
2.399999999999999 4944.388899999997 5.134371291459109
2.499999999999999 4940.214399999993 5.437786513110173
2.599999999999999 4936.439199999994 5.874549658798926
2.6999999999999993 4932.611199999992 5.935542538405904
2.7999999999999994 4928.581899999995 6.166536188052381
2.8999999999999995 4924.5229 6.076501416066695
2.9999999999999996 4920.209799999999 6.592037539252934
3.0999999999999996 4915.929699999998 7.02012036933847
3.1999999999999997 4911.6198999999915 7.004475474057149
3.3 4907.154999999993 6.975397563664219
3.4 4902.564700000001 7.009553320130277
3.5 4897.802799999995 7.6050897134452695
3.6 4893.4798 7.607826955904884
3.7 4888.318600000008 7.829743221774309
3.8000000000000003 4883.332300000001 8.269854727092184
3.9000000000000004 4878.151299999997 8.73676996718244
4.0 4874.026299999998 8.711780152381312
