# Rounds: 1000, repetitions: 1000
# Good arm ~ N(5.0,0.0), 4 bad arm(s) ~ N(4.5,0.0)
# Observation noise range from 0.5 to 4.0 with step size 0.1

# Observation noise | mean | standard deviation

0.5 4987.057000000002 2.277265232013393
0.6 4981.826000000009 1.8816919951906905
0.7 4976.0570000000025 2.0619171909905933
0.7999999999999999 4969.790999999992 1.9434752625377187
0.8999999999999999 4963.307 2.0473012583502124
0.9999999999999999 4956.391499999998 2.295375023061929
1.0999999999999999 4949.3514999999925 2.417445302750765
1.1999999999999997 4942.195999999996 2.6455780243801263
1.2999999999999996 4934.9929999999995 2.8368113258549026
1.3999999999999995 4927.4424999999965 3.0204414936920916
1.4999999999999993 4920.046 3.194305493779108
1.5999999999999992 4912.557000000002 3.448280969068734
1.699999999999999 4905.220499999998 3.6206683069551047
1.799999999999999 4897.614499999996 4.173734515971293
1.8999999999999988 4890.363500000013 4.273274930147667
1.9999999999999987 4883.159500000004 4.309859004031903
2.0999999999999988 4875.979000000004 4.781989797817054
2.199999999999999 4868.547000000005 5.024095195409082
2.299999999999999 4861.459000000001 5.17485247114333
2.399999999999999 4854.7339999999995 5.60947503873672
2.499999999999999 4847.958999999999 5.731419385123447
2.599999999999999 4841.440499999996 5.83946136720322
2.6999999999999993 4834.9439999999995 5.999529844776007
2.7999999999999994 4828.830999999997 6.210717511850925
2.8999999999999995 4822.4074999999975 6.402865799034052
2.9999999999999996 4816.629999999998 6.938028267183407
3.0999999999999996 4811.343999999996 6.915525178067701
3.1999999999999997 4805.117500000003 7.171462446643878
3.3 4799.735499999997 7.49142250585035
3.4 4794.802499999998 7.667661754849841
3.5 4788.912999999995 7.89377873662179
3.6 4784.646999999995 8.340890927320743
3.7 4780.169000000004 7.677361583309781
3.8000000000000003 4774.5954999999985 8.430581501560496
3.9000000000000004 4770.240999999996 8.744706335200107
4.0 4766.304499999995 8.366631955588822
