# Rounds: 1000, repetitions: 1000
# Good arm ~ N(5.0,1.0), 4 bad arm(s) ~ N(2.7,1.0)
# Observation noise range from 0.5 to 4.0 with step size 0.1

# Observation noise | mean | standard deviation

0.5 4987.797651921852 33.07990497096066
0.6 4987.3646543478935 32.882813049694214
0.7 4986.58346996902 31.467775271562424
0.7999999999999999 4986.5872992269715 33.503893373926815
0.8999999999999999 4984.844550854783 31.078909484426973
0.9999999999999999 4982.059618375062 31.76849966934918
1.0999999999999999 4980.092414863671 32.028466450232386
1.1999999999999997 4977.836416714404 33.4688885465943
1.2999999999999996 4974.569108730515 34.093744811455025
1.3999999999999995 4970.436462156016 32.573837730224184
1.4999999999999993 4969.092483656159 32.1100092313319
1.5999999999999992 4963.467807462407 32.03408406318609
1.699999999999999 4960.031444735737 32.85939513285515
1.799999999999999 4957.348727987195 33.43726306426489
1.8999999999999988 4952.678523238107 34.51420725157254
1.9999999999999987 4948.1707301620145 33.34792793880315
2.0999999999999988 4945.422661842106 34.25532701637624
2.199999999999999 4940.0520882437595 33.81155232984827
2.299999999999999 4937.3066333397 34.270276485239485
2.399999999999999 4932.092281477653 33.48366848559005
2.499999999999999 4926.777557373666 33.08532652942802
2.599999999999999 4922.5480300257 34.353663002020774
2.6999999999999993 4916.798335074991 34.66653091942505
2.7999999999999994 4913.211863496577 33.20260452497556
2.8999999999999995 4907.38444787146 34.15422224682674
2.9999999999999996 4901.810298858564 34.757187756720604
3.0999999999999996 4897.987394688603 35.451849269802906
3.1999999999999997 4892.749902917588 34.48080866693091
3.3 4885.848862187778 36.08911607501586
3.4 4881.7530129878805 35.12847563561611
3.5 4877.597768177687 36.71408453923342
3.6 4870.904583705808 36.34950797850257
3.7 4866.637151326428 35.7591285224511
3.8000000000000003 4859.606219133795 36.85589514050768
3.9000000000000004 4855.763862678737 36.73893466465144
4.0 4852.233419852761 36.10639064577457
