# Rounds: 1000, repetitions: 1000
# Good arm ~ N(5.0,1.0), 4 bad arm(s) ~ N(4.0,1.0)
# Observation noise range from 0.5 to 4.0 with step size 0.1

# Observation noise | mean | standard deviation

0.5 4968.929288912928 106.55733213843263
0.6 4970.924264711619 100.67308826766364
0.7 4975.728704029693 59.69877503278406
0.7999999999999999 4973.890425523948 65.21894262126331
0.8999999999999999 4972.785293015606 36.23630314775172
0.9999999999999999 4967.586190538379 33.9895492426894
1.0999999999999999 4964.527827314668 35.384392800118526
1.1999999999999997 4960.061013862316 35.43966986892191
1.2999999999999996 4952.666802845211 35.67980308656659
1.3999999999999995 4948.44315524597 35.08209559343135
1.4999999999999993 4942.71797109113 35.54283850151702
1.5999999999999992 4937.479308065904 34.01807168056075
1.699999999999999 4933.257673634109 35.687980766100495
1.799999999999999 4927.1204440752035 36.97483749871051
1.8999999999999988 4920.50939965467 35.79029244569263
1.9999999999999987 4912.693530986404 37.11066791365089
2.0999999999999988 4906.059301545018 37.63647567542321
2.199999999999999 4902.253339045996 38.666344502263094
2.299999999999999 4893.781560330176 39.38878253367117
2.399999999999999 4890.316963515866 38.169296727067945
2.499999999999999 4883.217234925005 38.0348674846826
2.599999999999999 4874.325527932546 41.06531363784337
2.6999999999999993 4869.231926308346 40.67352208350011
2.7999999999999994 4859.802996345667 41.07205333323956
2.8999999999999995 4855.3413668718595 40.22849913030035
2.9999999999999996 4846.833444011789 42.81644721240043
3.0999999999999996 4840.802925520155 40.96157316586537
3.1999999999999997 4833.191303323336 43.98306929194637
3.3 4827.604157934112 43.08827180082785
3.4 4818.358908569364 42.420632236155214
3.5 4814.545644199921 42.091599462173406
3.6 4806.583989995757 42.28752037432634
3.7 4798.997787571665 44.52292549106417
3.8000000000000003 4796.238834393855 44.81074214119095
3.9000000000000004 4789.8891458474245 43.55329212011453
4.0 4779.409615494555 44.87431662817174
