# Rounds: 1000, repetitions: 1000
# Good arm ~ N(5.0,0.0), 4 bad arm(s) ~ N(4.6,0.0)
# Observation noise range from 0.5 to 4.0 with step size 0.1

# Observation noise | mean | standard deviation

0.5 4984.878400000008 1.892552560748328
0.6 4978.834000000002 1.664696733707111
0.7 4972.416399999993 1.6131749357628016
0.7999999999999999 4965.481999999999 1.8186433029770395
0.8999999999999999 4958.126800000002 2.003301019561111
0.9999999999999999 4950.622000000001 2.301341385403689
1.0999999999999999 4943.1943999999985 2.393176954580611
1.1999999999999997 4935.593199999995 2.5319013180383165
1.2999999999999996 4927.9168 2.8469040416955114
1.3999999999999995 4920.174799999998 3.1206126294660024
1.4999999999999993 4912.597600000002 3.2618635768519675
1.5999999999999992 4905.135999999992 3.5219068454216593
1.699999999999999 4897.7832 3.7835794207645934
1.799999999999999 4890.324799999994 3.8863258340606843
1.8999999999999988 4883.3276 3.8583578327009707
1.9999999999999987 4876.490800000003 4.301183039064407
2.0999999999999988 4869.800800000001 4.352036256694057
2.199999999999999 4863.247999999999 4.49440270288008
2.299999999999999 4857.0459999999875 4.99932768252683
2.399999999999999 4850.911599999992 5.046048756011963
2.499999999999999 4845.107599999992 5.360630429212656
2.599999999999999 4839.621599999994 5.1750859852717745
2.6999999999999993 4834.2176 5.413660310543939
2.7999999999999994 4828.923999999996 5.702562864469403
2.8999999999999995 4824.139599999997 5.775849052068048
2.9999999999999996 4819.199599999991 6.068596848342377
3.0999999999999996 4814.478399999996 6.318976412592846
3.1999999999999997 4810.452799999993 6.209019575109018
3.3 4806.231599999984 6.487104436030571
3.4 4802.257999999989 6.4496817281474454
3.5 4798.370799999996 6.575699748862606
3.6 4794.689199999991 7.036848769201116
3.7 4791.106799999994 6.912833067637868
3.8000000000000003 4787.742399999991 7.215834706429622
3.9000000000000004 4784.712399999982 7.121539339396175
4.0 4781.467999999998 7.142009822473669
