# Rounds: 1000, repetitions: 1000
# Good arm ~ N(5.0,0.0), 7 bad arm(s) ~ N(4.9,0.0)
# Observation noise range from 0.5 to 8.0 with step size 0.1

# Observation noise | mean | standard deviation

0.5 4952.831599999993 1.1035847676275399
0.6 4945.355900000001 1.1263808964664541
0.7 4939.875899999999 1.1228579607415479
0.7999999999999999 4935.860499999995 1.1290458336556581
0.8999999999999999 4932.9115 1.102557655356185
0.9999999999999999 4930.699700000003 1.0714279573861611
1.0999999999999999 4929.067499999994 1.036372432004321
1.1999999999999997 4927.603299999998 0.998667335225923
1.2999999999999996 4926.513899999996 0.9947393107227068
1.3999999999999995 4925.729599999991 0.9768408560553157
1.4999999999999993 4924.927399999999 0.9653502686288755
1.5999999999999992 4924.2791 0.9667097380901364
1.699999999999999 4923.737199999992 0.9396057785153669
1.799999999999999 4923.2149 0.9337879577025854
1.8999999999999988 4922.879399999989 0.9576600402820439
1.9999999999999987 4922.473799999997 0.9263971997864611
2.0999999999999988 4922.138199999991 0.9742740733337389
2.199999999999999 4921.786799999987 0.9425572524651518
2.299999999999999 4921.5670999999975 0.9428236879220984
2.399999999999999 4921.286299999996 0.9809610566148291
2.499999999999999 4921.1759 0.9399961610469758
2.599999999999999 4920.969499999994 0.9437957938563845
2.6999999999999993 4920.739699999994 0.962538513718318
2.7999999999999994 4920.589999999993 0.9585503736471765
2.8999999999999995 4920.448599999993 0.9799889889272853
2.9999999999999996 4920.266599999998 0.9830008803307961
3.0999999999999996 4920.185699999991 0.9928097406762602
3.1999999999999997 4920.031099999989 0.9994106321287564
3.3 4919.89709999999 1.0175445872232125
3.4 4919.779900000001 1.020111080528566
3.5 4919.650299999997 1.044227140195397
3.6 4919.569599999989 1.0702716110043262
3.7 4919.434299999992 0.9659018979568343
3.8000000000000003 4919.365699999991 1.029336214772989
3.9000000000000004 4919.252399999996 1.0660350231914804
4.0 4919.189800000002 1.0597353438472223
4.1 4919.120099999989 1.0819966297114636
4.199999999999999 4919.041399999998 1.119901879729006
4.299999999999999 4918.978199999994 1.078716083308605
4.399999999999999 4918.907399999993 1.1077058509606286
4.499999999999998 4918.824299999994 1.138127780543573
4.599999999999998 4918.664099999996 1.1577052610538656
4.6999999999999975 4918.6435999999985 1.185100630116949
4.799999999999997 4918.635699999996 1.1630340313843814
4.899999999999997 4918.473099999998 1.1790914496536624
4.9999999999999964 4918.4783999999945 1.2003475639472465
5.099999999999996 4918.424099999998 1.2208110294264376
5.199999999999996 4918.397799999997 1.2147060017430311
5.299999999999995 4918.387900000001 1.259376679004014
5.399999999999995 4918.279999999996 1.2037562166106228
5.499999999999995 4918.206599999996 1.2922718005148333
5.599999999999994 4918.067299999992 1.261083280771242
5.699999999999994 4917.978499999995 1.2582252901927702
5.799999999999994 4918.0691 1.309752129465728
5.899999999999993 4917.980399999988 1.2853123619834936
5.999999999999993 4917.899199999992 1.3831458536438743
6.0999999999999925 4917.878199999991 1.3718844072392562
6.199999999999992 4917.811900000007 1.3349496172065947
6.299999999999992 4917.76829999999 1.388413772188382
6.3999999999999915 4917.666999999995 1.3371682837319554
6.499999999999991 4917.680199999997 1.3299009724773143
6.599999999999991 4917.712299999996 1.394167282793468
6.69999999999999 4917.570599999994 1.4000127412545529
6.79999999999999 4917.5742999999975 1.3868427606770346
6.89999999999999 4917.49719999999 1.398824102190171
6.999999999999989 4917.4306999999935 1.4145700825755934
7.099999999999989 4917.434899999998 1.3725289890654009
7.199999999999989 4917.410399999989 1.4270417962650943
7.299999999999988 4917.297999999994 1.51272083489438
7.399999999999988 4917.329199999998 1.5143449410883034
7.499999999999988 4917.289299999994 1.5203904423194219
7.599999999999987 4917.327499999997 1.3940506185667472
7.699999999999987 4917.183499999988 1.5051655301901201
7.7999999999999865 4917.232199999992 1.501291789438692
7.899999999999986 4917.113999999997 1.5053538089396596
7.999999999999986 4917.021600000001 1.4892384870364128
