# Rounds: 1000, repetitions: 1000
# Good arm ~ N(5.0,0.0), 7 bad arm(s) ~ N(0.5,0.0)
# Observation noise range from 0.5 to 8.0 with step size 0.1

# Observation noise | mean | standard deviation

0.5 4972.793499999997 2.483802936431776
0.6 4972.743999999998 2.3814145240035582
0.7 4972.384000000005 3.2041864506939564
0.7999999999999999 4972.383999999998 3.3465270420606754
0.8999999999999999 4972.469500000007 2.9335858050644377
0.9999999999999999 4971.920499999991 3.950194145074926
1.0999999999999999 4971.232000000005 4.617791680013314
1.1999999999999997 4970.017 5.3630190166521565
1.2999999999999996 4967.303500000003 6.41925576641054
1.3999999999999995 4962.9249999999965 6.740609083073335
1.4999999999999993 4957.867 6.938909097218321
1.5999999999999992 4950.815500000003 6.600551266903979
1.699999999999999 4945.658500000013 5.828687789833251
1.799999999999999 4941.738999999997 5.415136443590561
1.8999999999999988 4937.4549999999945 5.428714944252122
1.9999999999999987 4933.175499999995 6.149289675524611
2.0999999999999988 4928.670999999992 6.46908866132686
2.199999999999999 4923.257500000011 7.012211838276482
2.299999999999999 4917.700000000005 7.012537035601033
2.399999999999999 4911.701500000002 7.189111981398045
2.499999999999999 4905.558999999998 7.414917396707818
2.599999999999999 4900.0599999999995 7.7271021805142155
2.6999999999999993 4894.1065 7.89314319263625
2.7999999999999994 4888.081000000007 8.048429425435515
2.8999999999999995 4880.997999999994 8.469576714909069
2.9999999999999996 4875.427000000004 8.477590491439194
3.0999999999999996 4868.136999999998 8.590461397796242
3.1999999999999997 4861.904500000003 8.91695810755506
3.3 4854.983499999998 9.328933848878787
3.4 4847.571999999993 9.855452599751379
3.5 4840.727500000002 10.405925092322459
3.6 4833.622000000008 10.594118715181144
3.7 4826.124999999997 10.573583861476507
3.8000000000000003 4818.403 10.713887174054886
3.9000000000000004 4810.838499999996 11.104592731376034
4.0 4802.787999999999 11.25194037320505
4.1 4795.376499999998 11.811965131605774
4.199999999999999 4787.582499999999 11.90143217591221
4.299999999999999 4778.722 12.684325291796476
4.399999999999999 4770.599499999994 12.836612807839083
4.499999999999998 4761.806499999997 13.57348692478458
4.599999999999998 4754.003500000006 13.877799936628367
4.6999999999999975 4745.494000000001 13.838676705992272
4.799999999999997 4737.277000000007 13.276653966287626
4.899999999999997 4727.601999999999 14.607891240233291
4.9999999999999964 4719.290499999996 14.433855893209824
5.099999999999996 4709.989000000003 15.165730393831295
5.199999999999996 4699.666000000006 15.91792462365381
5.299999999999995 4692.623499999994 15.7096400512723
5.399999999999995 4681.751500000002 16.020116787710716
5.499999999999995 4672.396 16.17446435889912
5.599999999999994 4662.446500000006 17.369516050766556
5.699999999999994 4653.333999999993 16.627941316724485
5.799999999999994 4644.639999999993 16.583694368834692
5.899999999999993 4634.600499999994 18.21063637073196
5.999999999999993 4623.656500000002 17.88870491437306
6.0999999999999925 4615.007500000006 18.44317880937542
6.199999999999992 4603.748499999995 18.542014562987845
6.299999999999992 4592.057500000004 19.488965172977082
6.3999999999999915 4582.175499999997 20.00514072445895
6.499999999999991 4572.135999999991 20.883429354912558
6.599999999999991 4561.929999999997 20.420776383578293
6.69999999999999 4550.823999999999 20.376266002784096
6.79999999999999 4540.680999999994 20.972412381056238
6.89999999999999 4529.4490000000005 21.81911943624146
6.999999999999989 4518.784000000002 22.1681363734138
7.099999999999989 4507.637500000003 23.365504286031175
7.199999999999989 4496.679999999999 23.605026949726255
7.299999999999988 4485.538000000005 23.515335996473155
7.399999999999988 4474.108000000002 24.377696940197374
7.499999999999988 4463.834499999995 24.28960363189558
7.599999999999987 4450.415499999997 24.91780501482339
7.699999999999987 4441.276000000004 25.028638731596168
7.7999999999999865 4428.3790000000035 26.61777347684936
7.899999999999986 4416.291999999995 26.107246586423553
7.999999999999986 4404.042999999996 26.916493988791505
