# Rounds: 1000, repetitions: 1000
# Good arm ~ N(5.0,1.0), 7 bad arm(s) ~ N(1.0,1.0)
# Observation noise range from 0.5 to 8.0 with step size 0.1

# Observation noise | mean | standard deviation

0.5 4974.928674078975 31.553258523850374
0.6 4974.1637521956245 30.85820705581351
0.7 4972.726450395281 32.41706336385753
0.7999999999999999 4972.641397550704 32.80634917475645
0.8999999999999999 4970.839657998762 31.20300323978366
0.9999999999999999 4968.756395093842 31.75435628091641
1.0999999999999999 4968.615888450771 32.49096769724502
1.1999999999999997 4965.8958323731085 33.38063318169609
1.2999999999999996 4961.019481053914 32.70889390150624
1.3999999999999995 4955.250768836662 32.727316685873696
1.4999999999999993 4952.721384077339 31.869323123263996
1.5999999999999992 4947.116793244589 32.06774089920447
1.699999999999999 4943.021993420187 31.437819239095923
1.799999999999999 4938.76921978017 33.29186383281081
1.8999999999999988 4935.277005668143 33.648639897487584
1.9999999999999987 4928.7686703036525 32.710118178585766
2.0999999999999988 4923.185000552938 34.34555331284549
2.199999999999999 4917.750958812199 32.717480737790076
2.299999999999999 4911.855045223899 33.04361064782558
2.399999999999999 4908.006106052385 33.09835384621951
2.499999999999999 4901.044783569138 33.88488833706187
2.599999999999999 4893.205586908817 32.94136313874431
2.6999999999999993 4886.642023072403 33.828356947145195
2.7999999999999994 4883.587500148239 35.103382633842145
2.8999999999999995 4876.749292592345 35.41310777262459
2.9999999999999996 4867.555930434378 33.74451780089259
3.0999999999999996 4863.266928143336 34.921924822385506
3.1999999999999997 4856.12349406225 36.62417229578954
3.3 4848.206512280966 35.93812754803618
3.4 4842.17511747343 34.51818193380886
3.5 4833.857351592051 36.65490832798207
3.6 4825.449794699677 35.086459205517045
3.7 4817.771176552356 36.87642050842175
3.8000000000000003 4813.347089823802 36.92269762152011
3.9000000000000004 4802.357339840558 37.60409279800658
4.0 4791.9985428049085 35.570706170802296
4.1 4784.39623506055 38.24990557903158
4.199999999999999 4778.585949993178 37.23685027759906
4.299999999999999 4769.068186809306 37.33488966725824
4.399999999999999 4761.867134773042 38.69584544674937
4.499999999999998 4751.8697123829015 38.296252337629056
4.599999999999998 4744.066275618591 39.048253817238255
4.6999999999999975 4735.405313826519 38.91515619658243
4.799999999999997 4726.820018364152 39.9388635122008
4.899999999999997 4717.0822748256205 38.90140786034436
4.9999999999999964 4708.578565684052 38.99489853927338
5.099999999999996 4700.104459071506 39.19817660950891
5.199999999999996 4690.453219785942 38.91533004791707
5.299999999999995 4682.057505249218 39.1913641599734
5.399999999999995 4666.398155841643 40.02944372051113
5.499999999999995 4662.423439427104 42.65344169453828
5.599999999999994 4650.263238956236 41.84597170332679
5.699999999999994 4643.0995741182105 40.8939082030187
5.799999999999994 4635.053648479209 40.690193793636716
5.899999999999993 4620.417815557216 41.7879541054073
5.999999999999993 4612.919868806298 42.377938676230876
6.0999999999999925 4601.567734327131 43.86824992822305
6.199999999999992 4593.07844678272 43.22895020583016
6.299999999999992 4582.424259792603 45.95515365946228
6.3999999999999915 4570.091284757138 44.425026956152294
6.499999999999991 4558.51995299467 44.66960298159291
6.599999999999991 4547.766540183724 46.730875574639335
6.69999999999999 4540.611050446147 45.516215043907444
6.79999999999999 4529.732113045425 46.8264713978859
6.89999999999999 4519.2588547587075 45.15512931481702
6.999999999999989 4506.500264364671 45.236256822020955
7.099999999999989 4496.221645346169 45.09110390792415
7.199999999999989 4484.399681442811 46.34922116199073
7.299999999999988 4473.282350074347 48.653891428778174
7.399999999999988 4461.395721046969 49.33924038627505
7.499999999999988 4452.1716709315 46.50584541030041
7.599999999999987 4440.061677126056 47.88461957596384
7.699999999999987 4425.161251075103 47.76206163401072
7.7999999999999865 4414.596538559816 49.81564007480029
7.899999999999986 4405.740914457921 50.81232336130033
7.999999999999986 4390.09491429801 52.22805525482352
