# Rounds: 1000, repetitions: 1000
# Good arm ~ N(5.0,0.0), 7 bad arm(s) ~ N(1.0,0.0)
# Observation noise range from 0.5 to 8.0 with step size 0.1

# Observation noise | mean | standard deviation

0.5 4976.167999999993 2.3701040891474507
0.6 4975.888 3.158073689676898
0.7 4975.739999999999 3.3381946533333537
0.7999999999999999 4975.392000000005 3.9666194763388134
0.8999999999999999 4975.111999999996 4.458624825586339
0.9999999999999999 4974.440000000005 4.799733058977052
1.0999999999999999 4973.048000000002 5.389874464841194
1.1999999999999997 4970.128000000003 5.887807935240595
1.2999999999999996 4965.311999999988 6.240961913487896
1.3999999999999995 4959.375999999995 6.047081212551349
1.4999999999999993 4953.899999999996 5.730518199852385
1.5999999999999992 4949.155999999998 5.164720547942336
1.699999999999999 4945.367999999997 5.214188696601173
1.799999999999999 4941.112000000002 5.409687673121358
1.8999999999999988 4936.696000000004 5.909187973190841
1.9999999999999987 4931.083999999996 6.607011169704193
2.0999999999999988 4925.483999999995 6.431104345530672
2.199999999999999 4920.059999999999 7.048267735981447
2.299999999999999 4914.12399999999 6.866715064408516
2.399999999999999 4908.592000000006 6.974968543741661
2.499999999999999 4902.587999999997 7.5841793079921205
2.599999999999999 4896.167999999995 7.487846408937833
2.6999999999999993 4890.079999999996 7.533017081246218
2.7999999999999994 4883.320000000001 7.8826223895183
2.8999999999999995 4876.647999999993 8.370074919267742
2.9999999999999996 4870.615999999995 8.285964108128914
3.0999999999999996 4863.6079999999965 8.768764293059109
3.1999999999999997 4856.724000000003 9.201330799861905
3.3 4849.311999999989 9.29457072946599
3.4 4841.724000000002 9.45882092510982
3.5 4834.384000000001 9.71941412900037
3.6 4827.34 10.419643418513413
3.7 4819.856000000002 10.606590581509337
3.8000000000000003 4812.208 10.776310354887915
3.9000000000000004 4804.1159999999945 11.329382105785825
4.0 4796.132000000007 11.666305271107982
4.1 4788.3 11.940711058416111
4.199999999999999 4780.679999999995 12.302233331592435
4.299999999999999 4770.851999999994 12.891558799784
4.399999999999999 4763.559999999993 12.931110300883468
4.499999999999998 4754.043999999993 12.964804285069302
4.599999999999998 4746.548000000005 13.578072766783135
4.6999999999999975 4737.736000000007 13.591579563650239
4.799999999999997 4728.676000000005 14.169820316708622
4.899999999999997 4719.719999999998 14.077491814090237
4.9999999999999964 4710.659999999995 13.979979965645185
5.099999999999996 4701.344000000006 15.03634781972522
5.199999999999996 4691.859999999993 15.363607663581002
5.299999999999995 4682.127999999999 16.097041055135993
5.399999999999995 4672.867999999999 16.032954550912557
5.499999999999995 4663.656000000002 16.698038462301213
5.599999999999994 4654.384 16.428829856397208
5.699999999999994 4644.607999999999 16.579300624851747
5.799999999999994 4634.424000000007 17.56293485385288
5.899999999999993 4623.876000000001 18.00991340848094
5.999999999999993 4615.015999999999 17.702234692634512
6.0999999999999925 4604.323999999991 18.385893099467957
6.199999999999992 4594.047999999997 19.166769708562292
6.299999999999992 4582.6479999999965 18.89871046545914
6.3999999999999915 4574.051999999996 19.720501874805155
6.499999999999991 4561.6599999999935 20.359836023969468
6.599999999999991 4551.395999999997 20.908762764935666
6.69999999999999 4540.604000000001 20.95276120711064
6.79999999999999 4532.159999999997 20.927024163515007
6.89999999999999 4518.391999999995 21.465393057176893
6.999999999999989 4508.5359999999955 21.559812836143323
7.099999999999989 4497.200000000009 22.946340329876904
7.199999999999989 4487.143999999989 22.70609677665523
7.299999999999988 4475.259999999997 23.366265905839125
7.399999999999988 4464.74800000001 23.00890927240806
7.499999999999988 4451.087999999991 24.998743832304775
7.599999999999987 4441.508000000003 25.17983240531912
7.699999999999987 4430.3719999999985 24.652898032105277
7.7999999999999865 4418.519999999989 25.910479597123434
7.899999999999986 4405.840000000003 26.54383120378395
7.999999999999986 4394.259999999995 26.687011758467605
