# Rounds: 500, repetitions: 1000
# Good arm ~ N(5.0,1.0), 7 bad arm(s) ~ N(1.0,1.0)
# Observation noise range from 0.5 to 8.0 with step size 0.1

# Observation noise | mean | standard deviation

0.5 2474.4740736358453 22.74678329835871
0.6 2473.530097324508 22.18312693529447
0.7 2473.6292170259744 22.855904781243773
0.7999999999999999 2472.4191430763253 23.375853415059133
0.8999999999999999 2471.2733415219636 22.69728872988055
0.9999999999999999 2469.585513861218 23.199436117451043
1.0999999999999999 2469.7378413527217 23.781859891281236
1.1999999999999997 2467.040946192626 24.13717358875019
1.2999999999999996 2464.0198249183823 23.090231872919308
1.3999999999999995 2459.5555232872343 24.221060150165318
1.4999999999999993 2458.2040022378706 23.60781576715442
1.5999999999999992 2453.089494859341 23.452795740575517
1.699999999999999 2449.6265473575536 22.769754235212723
1.799999999999999 2444.7863234131805 24.589603815714582
1.8999999999999988 2440.603327380761 24.60992772593659
1.9999999999999987 2436.899181336192 24.55807180814498
2.0999999999999988 2430.762014967212 25.415381241539045
2.199999999999999 2426.685597184525 24.428866203826995
2.299999999999999 2422.0146812609382 25.3157365456708
2.399999999999999 2417.356803633139 25.049383453752238
2.499999999999999 2412.241154305443 25.54381539492805
2.599999999999999 2404.615850109364 24.99747442503928
2.6999999999999993 2398.9950141561644 26.056527463668772
2.7999999999999994 2396.709551362212 26.35802924251199
2.8999999999999995 2391.257292726299 26.663414849158446
2.9999999999999996 2383.500089244065 26.58849378310155
3.0999999999999996 2378.1183880703343 26.40550019476749
3.1999999999999997 2373.168894100144 27.556042425616294
3.3 2365.107848439173 27.40696925261166
3.4 2361.366054015985 27.45724505170762
3.5 2354.1146567474907 28.092518487745995
3.6 2346.9992652141973 27.568191045027536
3.7 2339.9505894376157 30.28300150575901
3.8000000000000003 2335.8882871695155 29.631624022490985
3.9000000000000004 2326.7073445523997 29.51151297881187
4.0 2318.0563841672442 30.073673363087586
4.1 2311.913891588948 30.319688855457418
4.199999999999999 2305.4663987564873 29.763314570529307
4.299999999999999 2298.684875259216 29.921519342900922
4.399999999999999 2292.3733295487395 31.700765032140016
4.499999999999998 2284.473299901178 30.832252170946113
4.599999999999998 2277.0321660740233 31.422454035153827
4.6999999999999975 2269.6332572856136 32.812276117861984
4.799999999999997 2261.7641416849433 32.28469246650885
4.899999999999997 2253.7193744330707 33.089042310413404
4.9999999999999964 2245.4419271057304 31.807087722864768
5.099999999999996 2239.5045563278954 33.68226568273665
5.199999999999996 2230.433080939747 33.11550517745599
5.299999999999995 2223.689102994865 32.71651940565787
5.399999999999995 2210.6467806751857 33.273909194359774
5.499999999999995 2207.197273283906 35.93586709105482
5.599999999999994 2195.701591400065 35.58362888189966
5.699999999999994 2189.2368446763985 35.02616929938926
5.799999999999994 2181.9157158869725 36.451761518822536
5.899999999999993 2170.679901902514 36.99728469183152
5.999999999999993 2164.785912066255 35.786691246471335
6.0999999999999925 2154.8922698799524 38.62089367542189
6.199999999999992 2147.652203749033 37.95618817089553
6.299999999999992 2137.589940113013 39.519345728143186
6.3999999999999915 2127.20317783892 40.80092272689879
6.499999999999991 2118.3989378041483 38.74775358023855
6.599999999999991 2107.620633308095 41.94444129604297
6.69999999999999 2102.9520037911834 39.84415332505374
6.79999999999999 2093.4884789884236 41.59465177035504
6.89999999999999 2083.038331338206 40.75458371945157
6.999999999999989 2073.486631872435 40.90202126315855
7.099999999999989 2065.3749362856247 41.100265461457106
7.199999999999989 2054.178123831855 41.92839151678183
7.299999999999988 2044.1950851040092 43.29244446498518
7.399999999999988 2034.7332123912665 45.52285651499746
7.499999999999988 2026.3067363833802 43.48450232069497
7.599999999999987 2017.2555927176368 44.319546530903544
7.699999999999987 2005.8736573936917 45.61627562056878
7.7999999999999865 1996.9106399657146 45.27181490625273
7.899999999999986 1988.3274953801613 46.167199116685914
7.999999999999986 1976.442127985979 47.885189358358765
