# Rounds: 500, repetitions: 1000
# Good arm ~ N(5.0,1.0), 7 bad arm(s) ~ N(4.0,1.0)
# Observation noise range from 0.5 to 8.0 with step size 0.1

# Observation noise | mean | standard deviation

0.5 2462.845189946735 71.61680663564634
0.6 2465.3586767135425 58.94613009271716
0.7 2461.6953576266114 50.57676309916316
0.7999999999999999 2461.2100257962343 39.72647326578113
0.8999999999999999 2455.336748060782 39.3812331113302
0.9999999999999999 2449.7293448053883 36.28417590131271
1.0999999999999999 2446.1120113254306 28.900763848614528
1.1999999999999997 2438.0548054587903 28.86216481486437
1.2999999999999996 2431.8644561237566 31.552926829753467
1.3999999999999995 2425.247873107781 32.96141904511256
1.4999999999999993 2419.3016363814527 30.69056783865751
1.5999999999999992 2411.603603692055 31.763595512474893
1.699999999999999 2403.3804825946163 32.00910471780949
1.799999999999999 2396.5425413910925 31.523243094458515
1.8999999999999988 2387.963922910536 34.26375455504548
1.9999999999999987 2383.282467785924 32.255680640354406
2.0999999999999988 2373.826762860004 32.66436662175314
2.199999999999999 2366.6860023035983 33.65790422427814
2.299999999999999 2361.4016591494164 33.692817709142034
2.399999999999999 2351.310864690669 35.48538516328019
2.499999999999999 2346.538440254932 35.85113380338107
2.599999999999999 2338.6095845350583 35.77260840150713
2.6999999999999993 2332.263018784576 37.067266458430474
2.7999999999999994 2324.7194131753317 35.71976726243565
2.8999999999999995 2320.7629065160786 36.72381260538709
2.9999999999999996 2312.1129755842458 36.70937086823314
3.0999999999999996 2306.6273550482674 37.696098744944926
3.1999999999999997 2300.817847733639 38.94194186734516
3.3 2294.3228751588704 37.460862988134465
3.4 2288.1794012489713 38.71511357973026
3.5 2283.493326482758 39.28676481566077
3.6 2275.23670663542 39.30024110347938
3.7 2272.2770081971516 38.55464884587536
3.8000000000000003 2266.8228012829964 37.95083083649604
3.9000000000000004 2260.35578215479 38.54025644799225
4.0 2257.664704815001 38.44446702644864
4.1 2251.66870800067 37.82358904853022
4.199999999999999 2247.0329363079836 36.91153100910741
4.299999999999999 2243.113571200809 39.72136941805531
4.399999999999999 2236.961572616265 38.340416347485544
4.499999999999998 2235.0883864639154 38.76942135076213
4.599999999999998 2229.254628911787 37.20764088525392
4.6999999999999975 2223.940392983465 38.52389219409456
4.799999999999997 2222.808445446987 38.30128952411855
4.899999999999997 2217.43003267512 38.35532962391187
4.9999999999999964 2213.3129740515064 38.77743962654106
5.099999999999996 2211.4571051296734 38.78313249846932
5.199999999999996 2206.351769505637 38.47069307927531
5.299999999999995 2203.5838747807065 37.772801025491944
5.399999999999995 2199.9499932874105 39.408093913417645
5.499999999999995 2195.6748848861603 38.11635276268077
5.599999999999994 2194.777903308259 37.05396851644585
5.699999999999994 2189.0479983666687 37.9673584650879
5.799999999999994 2186.4504072070604 37.219973219067526
5.899999999999993 2184.2308466984 37.33820104239019
5.999999999999993 2181.5745119073763 35.86254791613916
6.0999999999999925 2179.8518421609306 35.87486310078943
6.199999999999992 2176.7286539718325 36.33461255129535
6.299999999999992 2174.8226514420853 36.57156025718803
6.3999999999999915 2169.0538662197155 35.50922251103596
6.499999999999991 2170.253103883334 34.99730858634384
6.599999999999991 2166.279995296896 35.75908801049261
6.69999999999999 2164.36703732702 35.56040442449214
6.79999999999999 2161.199018463146 35.66882778247118
6.89999999999999 2158.7796954748765 34.93072085099699
6.999999999999989 2155.975410648402 34.904049157678436
7.099999999999989 2155.5331305064087 33.85408420347856
7.199999999999989 2153.115639859472 34.83872452144279
7.299999999999988 2151.932996255457 33.92334172162076
7.399999999999988 2147.6077546188963 33.542175357819794
7.499999999999988 2146.4474817484456 33.26495246569116
7.599999999999987 2146.7771361988 34.53274892298087
7.699999999999987 2143.312137009129 34.02512066587697
7.7999999999999865 2142.0222728279687 33.121040773023715
7.899999999999986 2138.641231105392 32.93704210748842
7.999999999999986 2137.1563895127238 33.726312624530344
