# Rounds: 500, repetitions: 1000
# Good arm ~ N(5.0,1.0), 7 bad arm(s) ~ N(3.0,1.0)
# Observation noise range from 0.5 to 8.0 with step size 0.1

# Observation noise | mean | standard deviation

0.5 2477.977597851743 45.91245182904693
0.6 2479.0973619675206 30.63478090814186
0.7 2475.4948798650885 25.27913874029851
0.7999999999999999 2474.6822573740933 27.960234187757145
0.8999999999999999 2468.0433108538396 26.790310398748083
0.9999999999999999 2466.6135521561287 24.669051034383088
1.0999999999999999 2463.807863888771 24.456094692042832
1.1999999999999997 2458.444146645111 25.591700886565203
1.2999999999999996 2453.161134654377 23.95400356743502
1.3999999999999995 2450.403701595493 25.684867148912158
1.4999999999999993 2444.306480354168 25.304183882751847
1.5999999999999992 2438.8035845442528 26.303796923536517
1.699999999999999 2433.6757485339576 26.09904392860465
1.799999999999999 2427.06513516917 26.306797629827603
1.8999999999999988 2421.4409150055394 26.069191592547924
1.9999999999999987 2415.2293794190696 27.046447879041484
2.0999999999999988 2409.145403938509 28.2239067514225
2.199999999999999 2404.815246630903 27.615839835851673
2.299999999999999 2397.163917813121 27.93613037334527
2.399999999999999 2391.023633901466 27.577318218912396
2.499999999999999 2385.6216750299363 28.390618421943522
2.599999999999999 2379.7728539767754 29.303931649864772
2.6999999999999993 2372.0414339964877 30.63763552250658
2.7999999999999994 2364.7749587979524 28.206786263672374
2.8999999999999995 2358.2269841503407 30.581891114299808
2.9999999999999996 2352.469492687302 30.05955158263891
3.0999999999999996 2344.6661302110874 29.924256057071744
3.1999999999999997 2337.3698711908246 31.74466719625942
3.3 2331.56859871625 31.92012176946117
3.4 2324.159270906976 32.08658596257684
3.5 2317.1260918215403 31.66485508923491
3.6 2308.2363849109606 32.814587046483695
3.7 2302.4677863286383 33.79117742195512
3.8000000000000003 2292.9986875427253 33.762695246163446
3.9000000000000004 2287.4267224852642 35.050740721418784
4.0 2282.656937396691 34.357363028522364
4.1 2273.523935223463 35.77891369771167
4.199999999999999 2266.062240078524 35.8898137902556
4.299999999999999 2260.799276447476 36.42058814267918
4.399999999999999 2252.900214002505 37.64996575825743
4.499999999999998 2246.139206669726 37.139721949613204
4.599999999999998 2237.5739101216395 37.38994470631271
4.6999999999999975 2230.3492832820743 35.730135773711794
4.799999999999997 2222.1377135661846 37.77198066757002
4.899999999999997 2217.2154517525537 38.75931862315827
4.9999999999999964 2207.4153803408462 39.60080639391149
5.099999999999996 2200.2060082833013 39.95058806549444
5.199999999999996 2192.830125249851 41.30601569144074
5.299999999999995 2185.8805007905994 41.51308456295838
5.399999999999995 2178.949303945979 41.84754427509646
5.499999999999995 2173.4492069284393 41.414121058005456
5.599999999999994 2165.7384853895583 41.77331970412061
5.699999999999994 2157.25533444616 43.004909052108914
5.799999999999994 2153.1987649953294 43.75386165776838
5.899999999999993 2143.085110342471 44.36215646602477
5.999999999999993 2135.5691006046422 43.49308835941584
6.0999999999999925 2128.2219155516 42.651054267186964
6.199999999999992 2122.061127260871 43.06873285051457
6.299999999999992 2114.559568687194 45.8789409480499
6.3999999999999915 2105.3547148806424 46.38961664057277
6.499999999999991 2101.181880026862 45.49075688566333
6.599999999999991 2093.093504165965 45.39801729398767
6.69999999999999 2086.4079310161474 45.73450163848238
6.79999999999999 2076.1347815796835 45.295262084470345
6.89999999999999 2074.313480583701 45.85899560612051
6.999999999999989 2063.8136109906613 45.15234541645467
7.099999999999989 2059.1850676989197 46.51999164621802
7.199999999999989 2052.5818768273934 49.0703393644622
7.299999999999988 2044.7819231161088 46.5322827633386
7.399999999999988 2039.5830767107504 47.7508453869926
7.499999999999988 2031.1843718991724 48.710512344541954
7.599999999999987 2022.2118360041816 51.656557502121444
7.699999999999987 2020.7935201606003 48.934635110537606
7.7999999999999865 2013.6693687254005 46.17802156189299
7.899999999999986 2005.5821754997721 48.68053153098618
7.999999999999986 2001.7812610882918 48.89708250255698
