# Rounds: 500, repetitions: 1000
# Good arm ~ N(5.0,0.0), 7 bad arm(s) ~ N(0.0,0.0)
# Observation noise range from 0.5 to 8.0 with step size 0.1

# Observation noise | mean | standard deviation

0.5 2469.5850000000005 1.818263204566696
0.6 2469.425000000001 2.291205932391188
0.7 2469.2249999999976 2.526015786917367
0.7999999999999999 2469.2899999999977 2.617776299218973
0.8999999999999999 2469.0249999999955 3.1279640597614105
0.9999999999999999 2468.760000000002 3.4676251851121718
1.0999999999999999 2468.5400000000027 3.8837460632079503
1.1999999999999997 2468.1150000000025 4.614441251990081
1.2999999999999996 2467.2199999999975 5.07418440218207
1.3999999999999995 2465.8350000000014 5.692994395323515
1.4999999999999993 2463.439999999999 6.305248302498171
1.5999999999999992 2459.3649999999993 7.4382190141257825
1.699999999999999 2454.7050000000054 7.674429742454521
1.799999999999999 2449.4999999999995 7.887471851754021
1.8999999999999988 2444.5350000000026 7.194479518042666
1.9999999999999987 2439.679999999997 7.099154738276808
2.0999999999999988 2435.1999999999975 6.492468879567444
2.199999999999999 2431.05 7.028292601827048
2.299999999999999 2426.8699999999985 7.197562427996332
2.399999999999999 2422.420000000002 7.8361345703736935
2.499999999999999 2418.144999999998 8.062194116614553
2.599999999999999 2412.9999999999964 8.687662256066098
2.6999999999999993 2407.3999999999983 8.824277186708724
2.7999999999999994 2402.385000000001 9.025976027180876
2.8999999999999995 2396.6850000000004 9.263994634961552
2.9999999999999996 2391.5600000000013 9.132349084425122
3.0999999999999996 2385.720000000003 10.256060978113657
3.1999999999999997 2379.1849999999995 10.117466982310301
3.3 2374.0550000000035 10.444666871952714
3.4 2367.2550000000037 10.516680825031061
3.5 2361.8699999999953 10.909726033321052
3.6 2354.6049999999977 10.990439698427204
3.7 2349.285000000004 11.749545813640081
3.8000000000000003 2342.625000000002 11.64559981258994
3.9000000000000004 2336.185 12.03809331624782
4.0 2329.4349999999986 12.724688314166814
4.1 2322.704999999999 13.523714943234593
4.199999999999999 2315.7500000000027 12.678653250572298
4.299999999999999 2308.3449999999984 13.734067117922535
4.399999999999999 2301.504999999997 14.230688229579345
4.499999999999998 2293.8850000000007 14.123783354903784
4.599999999999998 2286.3699999999963 14.111067366511378
4.6999999999999975 2279.405000000001 14.842212310375617
4.799999999999997 2271.8799999999983 15.74209050327858
4.899999999999997 2265.100000000002 16.171008054586462
4.9999999999999964 2255.534999999999 15.974791672161759
5.099999999999996 2247.8150000000014 16.53100266314931
5.199999999999996 2239.6299999999997 17.57475382393652
5.299999999999995 2231.6000000000026 18.626243231981498
5.399999999999995 2224.4499999999944 17.976948313622877
5.499999999999995 2217.4050000000066 18.545482196748363
5.599999999999994 2208.0049999999987 18.49153622368643
5.699999999999994 2198.945000000002 20.082711228573938
5.799999999999994 2190.3999999999955 19.587589787252377
5.899999999999993 2181.339999999999 20.30558338774628
5.999999999999993 2173.5749999999975 20.114645758103066
6.0999999999999925 2163.800000000003 21.046447513843102
6.199999999999992 2155.5049999999997 22.29612280402343
6.299999999999992 2146.564999999999 21.9090342274775
6.3999999999999915 2137.015000000001 21.72064827673339
6.499999999999991 2127.4049999999984 23.530717576599105
6.599999999999991 2119.4999999999995 23.257061097457914
6.69999999999999 2109.2100000000023 23.495274587199994
6.79999999999999 2100.955000000001 24.156707588608263
6.89999999999999 2090.5300000000025 24.59825551079128
6.999999999999989 2080.5350000000003 25.9733207039144
7.099999999999989 2070.1749999999975 25.132170638466565
7.199999999999989 2061.6249999999995 25.43484433422597
7.299999999999988 2052.1399999999985 26.60504140624905
7.399999999999988 2041.185000000001 26.829845612966455
7.499999999999988 2031.784999999998 26.98827786543881
7.599999999999987 2020.3600000000008 28.210214749558663
7.699999999999987 2012.2999999999997 28.146975898882296
7.7999999999999865 2000.6800000000017 29.372612249344655
7.899999999999986 1991.5499999999995 29.16072440540263
7.999999999999986 1979.7449999999992 29.984313132603873
