# Rounds: 500, repetitions: 1000
# Good arm ~ N(5.0,1.0), 7 bad arm(s) ~ N(2.0,1.0)
# Observation noise range from 0.5 to 8.0 with step size 0.1

# Observation noise | mean | standard deviation

0.5 2480.01004780858 23.693378582566222
0.6 2479.047888749548 23.665911092164222
0.7 2478.000749962053 24.38105391319215
0.7999999999999999 2475.4991411059514 22.85106914749914
0.8999999999999999 2472.1820244710507 23.45438822393026
0.9999999999999999 2471.1201153143884 23.975853088512626
1.0999999999999999 2467.8676228976656 24.020120182402167
1.1999999999999997 2464.9555626353454 24.176631768842686
1.2999999999999996 2462.0150527280866 24.695581824245835
1.3999999999999995 2457.8483935538156 23.898899890611208
1.4999999999999993 2452.792485996087 24.020937302519044
1.5999999999999992 2449.5355461693234 23.990028613462172
1.699999999999999 2442.9923268536677 25.31442677482193
1.799999999999999 2439.8342829985913 25.7100502770125
1.8999999999999988 2436.3552589970222 25.371965404431105
1.9999999999999987 2429.415449486536 24.580422249368084
2.0999999999999988 2425.8454095048082 25.206163890535045
2.199999999999999 2419.1268752991427 25.377607004776362
2.299999999999999 2415.5253866436265 26.68041581649637
2.399999999999999 2408.4161524458355 26.36540228729734
2.499999999999999 2402.9332547306926 25.375674444258287
2.599999999999999 2397.2857256782527 26.846428527674934
2.6999999999999993 2392.6415493402637 26.054929389271972
2.7999999999999994 2386.1258025080756 26.710110224781523
2.8999999999999995 2379.676158068633 28.66032412968398
2.9999999999999996 2371.011141886562 27.594801140143527
3.0999999999999996 2366.816670362678 27.558991731329385
3.1999999999999997 2360.2785202222426 27.969035452444277
3.3 2353.625895553247 29.85987197058853
3.4 2346.819974196046 30.362058806880924
3.5 2341.357052738102 28.199303015636204
3.6 2333.544592121715 29.86381989854602
3.7 2326.4215683525786 29.782163602296716
3.8000000000000003 2318.3237021356645 30.24678315269576
3.9000000000000004 2313.5430315444237 31.11168800579645
4.0 2306.342024762721 31.567440848846093
4.1 2299.526685113615 31.2475906516231
4.199999999999999 2290.7475152403217 30.337865900761347
4.299999999999999 2284.9840609282514 32.84801741789378
4.399999999999999 2276.1673789879355 32.454395389874655
4.499999999999998 2269.8903713909594 32.096596333005856
4.599999999999998 2260.9159285823043 33.39122222521216
4.6999999999999975 2255.5754232459612 34.673379158139134
4.799999999999997 2248.1663917598266 34.3923911454814
4.899999999999997 2240.0199671329983 34.499845960567484
4.9999999999999964 2231.5209098674436 34.276428569092616
5.099999999999996 2225.6802134086715 34.87120152131626
5.199999999999996 2218.689349956408 36.731144807794024
5.299999999999995 2206.960633820477 37.01333371987606
5.399999999999995 2200.6417876944984 37.162948219905815
5.499999999999995 2192.561724796608 36.710356041340816
5.599999999999994 2183.7337088284016 38.198111402538366
5.699999999999994 2172.7529392855886 39.66243757038922
5.799999999999994 2168.075371052808 36.60221206748061
5.899999999999993 2159.131298247706 39.177525764614586
5.999999999999993 2150.915909829685 40.04319147101609
6.0999999999999925 2143.1108181153963 40.58567729743213
6.199999999999992 2135.3422604611987 39.01101543481064
6.299999999999992 2127.382892500078 41.91831663995712
6.3999999999999915 2116.3770852085368 41.410365699521186
6.499999999999991 2108.780749848371 42.310660346554286
6.599999999999991 2100.326620367456 41.78105897846751
6.69999999999999 2092.1939033983854 43.24722536471822
6.79999999999999 2082.8942776974086 41.59616604941066
6.89999999999999 2073.1131282021383 43.07175254063681
6.999999999999989 2066.495288363926 42.07574570473685
7.099999999999989 2057.5480101034636 43.78061226683862
7.199999999999989 2048.5325673128805 43.43002289185341
7.299999999999988 2040.2195113346133 46.85754340235008
7.399999999999988 2031.1198398941149 48.010301126857314
7.499999999999988 2022.7428772266808 46.10693015369861
7.599999999999987 2013.9359607248377 46.083990575572095
7.699999999999987 2002.582152958154 48.53668320065791
7.7999999999999865 1997.369891990097 44.99676067143438
7.899999999999986 1987.361289337544 47.64012901446128
7.999999999999986 1977.0452406445254 47.915174154907106
