# Rounds: 50, repetitions: 1000
# Good arm ~ N(5.0,0.0), 10 bad arm(s) ~ N(3.0,0.0)
# Observation noise range from 0.5 to 8.0 with step size 0.1

# Observation noise | mean | standard deviation

0.5 231.85800000000003 6.302662894329651
0.6 230.88800000000006 7.543232487226966
0.7 229.70000000000013 7.766744641245928
0.7999999999999999 228.17399999999986 7.991594934028483
0.8999999999999999 226.4399999999998 7.748189106780646
0.9999999999999999 223.76400000000012 8.026002785990096
1.0999999999999999 220.61599999999993 9.137178559710422
1.1999999999999997 218.1839999999999 9.072621256090033
1.2999999999999996 215.97 9.043942331356003
1.3999999999999995 213.52799999999988 9.011238450868928
1.4999999999999993 210.86000000000018 9.75723339905341
1.5999999999999992 208.06199999999978 10.041563074989316
1.699999999999999 205.7259999999999 9.865000873909842
1.799999999999999 202.746 9.711941402510925
1.8999999999999988 199.90199999999987 10.602207449526857
1.9999999999999987 197.63799999999998 10.827843654126072
2.0999999999999988 194.7660000000001 10.970761213407284
2.199999999999999 194.08000000000018 10.781736680416817
2.299999999999999 191.55200000000008 10.792023154337818
2.399999999999999 189.42200000000003 11.49286744037371
2.499999999999999 188.056 11.089086158553908
2.599999999999999 186.37799999999987 11.068677953198932
2.6999999999999993 184.5679999999999 10.919918526281258
2.7999999999999994 182.844 10.69626449159118
2.8999999999999995 181.80399999999997 10.590644255461834
2.9999999999999996 180.084 10.54438846629467
3.0999999999999996 179.38799999999952 10.38370248405054
3.1999999999999997 177.95800000000017 10.134147074960842
3.3 176.8120000000003 10.235498103239605
3.4 176.35200000000006 9.709911347606546
3.5 175.15799999999976 9.516596114241764
3.6 174.7639999999999 9.308864536502758
3.7 173.73200000000006 9.345347051421465
3.8000000000000003 172.3040000000001 8.93820314579369
3.9000000000000004 172.6200000000001 8.91869626925053
4.0 172.00399999999976 8.940241155131769
4.1 171.15200000000002 8.599235014979113
4.199999999999999 170.1520000000003 8.305532967719639
4.299999999999999 170.2919999999999 8.28537165028723
4.399999999999999 169.93200000000007 7.8189841100051085
4.499999999999998 169.45999999999998 7.918276270698006
4.599999999999998 169.0520000000001 7.548660694340299
4.6999999999999975 169.0739999999999 7.685414080554783
4.799999999999997 168.0420000000001 7.410610848854062
4.899999999999997 168.244 7.366595599782232
4.9999999999999964 167.2179999999999 7.034625929071279
5.099999999999996 166.9919999999997 7.051926379767843
5.199999999999996 167.13199999999992 7.1968305781343975
5.299999999999995 167.06399999999985 6.938302677459659
5.399999999999995 167.0060000000001 6.8394987201360555
5.499999999999995 166.4159999999997 6.636187383052338
5.599999999999994 166.17399999999998 6.522289802229298
5.699999999999994 165.70400000000026 6.172072462186297
5.799999999999994 165.6340000000001 6.289801714331374
5.899999999999993 165.81800000000007 6.393727844986498
5.999999999999993 165.44600000000014 6.036018349667044
6.0999999999999925 165.6139999999999 6.225251622043714
6.199999999999992 165.55200000000016 6.041506086713465
6.299999999999992 164.8599999999999 6.045903816052068
6.3999999999999915 164.66600000000005 6.074318179132657
6.499999999999991 164.7139999999998 5.785125035094026
6.599999999999991 165.16000000000003 5.972107338793074
6.69999999999999 164.5320000000001 5.508840469946749
6.79999999999999 164.90799999999996 5.80906888247001
6.89999999999999 164.60799999999972 5.752166845930609
6.999999999999989 164.604 5.567241523248132
7.099999999999989 164.076 5.536865618820893
7.199999999999989 164.10199999999986 5.388379221123009
7.299999999999988 163.80599999999998 5.316260586787164
7.399999999999988 163.9400000000002 5.470861936690629
7.499999999999988 164.10599999999985 5.268065728188712
7.599999999999987 163.92999999999992 5.361328552126215
7.699999999999987 163.64599999999996 5.332083562277971
7.7999999999999865 163.57599999999988 5.190680799969031
7.899999999999986 163.34599999999983 5.131726670295152
7.999999999999986 163.3759999999999 5.066388486120283
