# Rounds: 50, repetitions: 1000
# Good arm ~ N(5.0,0.0), 10 bad arm(s) ~ N(4.0,0.0)
# Observation noise range from 0.5 to 8.0 with step size 0.1

# Observation noise | mean | standard deviation

0.5 237.195 6.283666084337983
0.6 234.35400000000016 6.311935085575937
0.7 232.15300000000002 6.420031760654137
0.7999999999999999 230.0430000000004 6.226067371536784
0.8999999999999999 227.36100000000022 6.691446364909046
0.9999999999999999 225.20700000000008 6.459402052425191
1.0999999999999999 223.74300000000002 6.269949223340111
1.1999999999999997 222.17899999999992 6.411713426929576
1.2999999999999996 221.0810000000001 6.222472029519945
1.3999999999999995 219.59300000000022 6.02956936328846
1.4999999999999993 218.72899999999987 5.784377063955806
1.5999999999999992 217.63100000000023 5.821402556749336
1.699999999999999 216.95100000000008 5.664157632135751
1.799999999999999 216.755 5.342613453967881
1.8999999999999988 216.25000000000003 5.216964320054021
1.9999999999999987 215.29300000000018 5.283092092899958
2.0999999999999988 214.6579999999997 5.142906326726696
2.199999999999999 214.02600000000012 5.114829956654035
2.299999999999999 214.00099999999978 5.0313331546731535
2.399999999999999 213.1819999999999 4.981936942163728
2.499999999999999 213.16600000000008 4.826358641640475
2.599999999999999 212.99900000000002 4.848350802644708
2.6999999999999993 212.30900000000028 4.544465994060378
2.7999999999999994 212.12100000000015 4.472623767249304
2.8999999999999995 211.80099999999993 4.565330354009585
2.9999999999999996 211.67100000000016 4.291757003626609
3.0999999999999996 211.6380000000001 4.1732927494212975
3.1999999999999997 211.29500000000002 4.025192812422425
3.3 210.95800000000008 3.877276011489152
3.4 211.09100000000007 4.034724029967609
3.5 210.92000000000027 3.823116034887806
3.6 210.53900000000027 3.7352953606684713
3.7 210.5750000000001 3.6389032161650854
3.8000000000000003 210.83799999999985 3.7680172443811784
3.9000000000000004 210.35300000000035 3.696763051245927
4.0 210.19200000000006 3.5718194094738043
4.1 210.20799999999997 3.5582857385821915
4.199999999999999 210.07599999999977 3.5347869410643002
4.299999999999999 209.90100000000015 3.5218748703783653
4.399999999999999 209.8359999999997 3.2701372750693247
4.499999999999998 209.62900000000008 3.1933613257125453
4.599999999999998 209.74899999999997 3.2203057881774826
4.6999999999999975 209.65900000000022 3.1417494472967897
4.799999999999997 209.4860000000003 3.0661384843488784
4.899999999999997 209.59399999999988 3.085236244225501
4.9999999999999964 209.563 3.0244302237245018
5.099999999999996 209.36699999999965 3.1148054534774703
5.199999999999996 209.31000000000017 2.9840919564927604
5.299999999999995 209.23599999999988 2.917673185402539
5.399999999999995 209.31599999999966 2.936795663434687
5.499999999999995 209.31399999999994 2.8965140762291863
5.599999999999994 209.32899999999978 2.984236026969828
5.699999999999994 209.08300000000006 2.7798990699014463
5.799999999999994 208.97199999999992 2.6142016085317614
5.899999999999993 208.99799999999973 2.789224941767121
5.999999999999993 208.93599999999978 2.7109506180034426
6.0999999999999925 209.0890000000002 2.700068400868647
6.199999999999992 209.16199999999975 2.757781964072104
6.299999999999992 208.9959999999999 2.6662882614400636
6.3999999999999915 208.90700000000007 2.702157037008142
6.499999999999991 209.03800000000004 2.705896871256909
6.599999999999991 208.90099999999998 2.596910268558186
6.69999999999999 209.008 2.6846122891663744
6.79999999999999 208.81499999999977 2.570093457518685
6.89999999999999 208.92500000000015 2.5573257350042153
6.999999999999989 208.86799999999985 2.538310268469757
7.099999999999989 208.878 2.5293306453513558
7.199999999999989 208.74499999999978 2.520382377205371
7.299999999999988 208.87099999999984 2.623211817646494
7.399999999999988 208.8489999999999 2.4714990000619723
7.499999999999988 208.79799999999997 2.565107361452103
7.599999999999987 208.8650000000001 2.5724292784044507
7.699999999999987 208.66100000000006 2.384903932397867
7.7999999999999865 208.6870000000002 2.4594877678248563
7.899999999999986 208.78299999999987 2.4629204162897635
7.999999999999986 208.66199999999975 2.41735384244831
