# Rounds: 50, repetitions: 1000
# Good arm ~ N(5.0,1.0), 10 bad arm(s) ~ N(0.0,1.0)
# Observation noise range from 0.5 to 8.0 with step size 0.1

# Observation noise | mean | standard deviation

0.5 205.37128226826061 8.51014597781564
0.6 205.09175583052468 8.433732671444861
0.7 204.92218150894865 9.177477478615389
0.7999999999999999 204.69852422308333 8.612074701316482
0.8999999999999999 204.09175518722648 8.78046805487918
0.9999999999999999 203.9108624204547 8.854245758971967
1.0999999999999999 202.76596294238416 9.435487115108366
1.1999999999999997 202.34982974061992 9.709178878197461
1.2999999999999996 202.39793178364832 9.978658032689852
1.3999999999999995 200.12649682439726 10.484647011450535
1.4999999999999993 198.45524495567807 11.755404763669729
1.5999999999999992 196.27053269195196 12.10326612532923
1.699999999999999 194.32885670872076 12.273619778699954
1.799999999999999 192.221648276674 13.276976579318273
1.8999999999999988 188.57977067062527 14.57299285293857
1.9999999999999987 186.13484626557266 15.320616466966664
2.0999999999999988 182.73255179443646 15.630712852366372
2.199999999999999 179.523812847197 15.502867483763616
2.299999999999999 175.11696284211104 17.538315461022957
2.399999999999999 171.24173269785877 17.434352643327422
2.499999999999999 167.6900494238176 17.52142823179392
2.599999999999999 161.90412663454808 19.310084395860475
2.6999999999999993 159.54256577306467 20.38885716913073
2.7999999999999994 154.10072735823778 20.35087557412782
2.8999999999999995 150.51647653396213 20.03404115824759
2.9999999999999996 145.60446582797064 20.539735562209607
3.0999999999999996 140.27084663052727 22.12005422931169
3.1999999999999997 135.35490944521123 23.341174779377315
3.3 132.5153580780789 23.208655450261332
3.4 129.0360026924534 24.140196246056256
3.5 122.27780019104641 23.776461248708813
3.6 119.4300578323498 23.651310266916596
3.7 116.52049539547384 25.10173589928014
3.8000000000000003 113.43689402350954 25.901631837797026
3.9000000000000004 105.81323208277878 25.459167186074588
4.0 104.08704923773689 25.397973112232172
4.1 100.49982183357717 25.363996993264383
4.199999999999999 96.65919591376692 24.35548647023123
4.299999999999999 93.39956929227185 24.78288128285617
4.399999999999999 90.69855582768895 26.229305941454374
4.499999999999998 88.02618579434066 24.591526351625074
4.599999999999998 85.15208938605608 24.950012317178146
4.6999999999999975 80.22664817308842 23.999208153492873
4.799999999999997 78.38192451096454 24.3883137049521
4.899999999999997 74.99697082419465 24.256154716041422
4.9999999999999964 72.89029765536598 24.374420881219095
5.099999999999996 69.45727908602571 23.26744399497409
5.199999999999996 67.9801535552889 22.856893243412063
5.299999999999995 66.20387970588443 21.845051097623653
5.399999999999995 65.03386250341265 22.422503949196777
5.499999999999995 63.42620857878898 22.000768820273088
5.599999999999994 59.91020668168569 22.87669362468914
5.699999999999994 58.80896447528267 21.903060815118668
5.799999999999994 56.90950716327212 21.53110414913502
5.899999999999993 54.59007297341567 21.379616879058073
5.999999999999993 52.77372903986736 20.907494119667497
6.0999999999999925 52.74111047647973 20.919477481499566
6.199999999999992 51.66309397306156 21.19269344032377
6.299999999999992 48.982392003579164 20.41688862576924
6.3999999999999915 48.57940845895543 19.628122861206055
6.499999999999991 48.23257351216938 19.70801816390787
6.599999999999991 45.927062234821214 19.26042720063605
6.69999999999999 45.290644570306405 19.612946329766658
6.79999999999999 44.18676590641031 19.47351910132989
6.89999999999999 43.30973959402767 18.835842743079407
6.999999999999989 44.265328382977266 18.975162738777605
7.099999999999989 42.29566460999026 18.485597712982702
7.199999999999989 41.271945056785505 18.097150963251764
7.299999999999988 41.120130779704745 18.65558374368666
7.399999999999988 41.14820803174439 18.04847366846556
7.499999999999988 39.85262844532665 17.65894661555857
7.599999999999987 38.44196961166899 16.822886432374627
7.699999999999987 38.54389666048252 17.743783109640287
7.7999999999999865 38.141674715009906 16.914882144303025
7.899999999999986 37.13597922822583 17.619232595955847
7.999999999999986 37.007760988752004 17.193146008310283
