# Rounds: 50, repetitions: 1000
# Good arm ~ N(5.0,1.0), 10 bad arm(s) ~ N(1.0,1.0)
# Observation noise range from 0.5 to 8.0 with step size 0.1

# Observation noise | mean | standard deviation

0.5 213.92972463254392 8.934641262355921
0.6 212.92505844603096 9.492498340733237
0.7 213.06508010096525 9.169069539618548
0.7999999999999999 212.18394652718703 9.588766505146557
0.8999999999999999 212.0293709451987 9.857626572543722
0.9999999999999999 211.14547031860315 10.366861179695814
1.0999999999999999 209.783773364441 10.335743316214469
1.1999999999999997 208.46786122715528 11.030266473090663
1.2999999999999996 206.5193294087441 11.80146635278424
1.3999999999999995 205.20834516041955 12.673554072186144
1.4999999999999993 202.18808097180695 12.866583751892858
1.5999999999999992 199.60109118905226 13.49757393695272
1.699999999999999 197.2525466397241 14.316185535291519
1.799999999999999 193.77682755697882 15.158233878151064
1.8999999999999988 190.5602449413631 15.32550206397841
1.9999999999999987 187.930150221188 17.27806425059395
2.0999999999999988 184.28544957560266 16.672977379215897
2.199999999999999 181.37604882999784 17.284872586203896
2.299999999999999 177.26030531102697 18.026677794712004
2.399999999999999 174.25895741523914 18.473568769634852
2.499999999999999 169.85952799030733 18.36464756548625
2.599999999999999 166.15694865299272 19.473894385160992
2.6999999999999993 163.10488337783238 19.30196375934433
2.7999999999999994 158.8640908947843 20.193469549166796
2.8999999999999995 154.66890490952198 21.191842758541224
2.9999999999999996 151.77645678786672 21.513441175422027
3.0999999999999996 148.39565816912813 21.25872197182
3.1999999999999997 144.84125818506192 22.216878066467718
3.3 141.08363508194716 22.063780629636398
3.4 136.8868026320036 22.566527248187636
3.5 134.55135503083113 22.76295563200246
3.6 132.26243659746672 22.803192874180635
3.7 126.91615850699817 22.718953549535968
3.8000000000000003 123.07397369690777 22.655966056101917
3.9000000000000004 123.00068647288192 21.88557451693193
4.0 118.0717037741575 22.406793298775572
4.1 117.5309814266299 22.700750476716227
4.199999999999999 114.8224101820636 20.997508650457323
4.299999999999999 111.9356859739699 21.49591070368301
4.399999999999999 110.05926844301167 21.740930638841466
4.499999999999998 108.61888124468075 21.370350391629533
4.599999999999998 106.06683213515336 20.979295316957497
4.6999999999999975 103.8889565772532 20.209804835165546
4.799999999999997 102.21394771470767 20.47088524662591
4.899999999999997 100.53186286974397 19.462840547038017
4.9999999999999964 98.88861823595174 19.161653908560297
5.099999999999996 96.27981660826028 18.607153937672695
5.199999999999996 97.16157635911019 18.941435735179056
5.299999999999995 94.10850246632356 18.729411679361608
5.399999999999995 92.60534702338404 18.530159081736596
5.499999999999995 91.41616052213703 17.94799927095627
5.599999999999994 90.01483349656394 16.804682263624258
5.699999999999994 91.03956925416298 17.817760213986862
5.799999999999994 89.44284342364767 16.80212581510151
5.899999999999993 87.68395085722642 16.851499450515696
5.999999999999993 88.62502121795313 17.365214920652164
6.0999999999999925 87.09392839428862 16.594870764716603
6.199999999999992 86.3529027264547 16.203519123552212
6.299999999999992 85.29714822261602 16.167753732579307
6.3999999999999915 84.73721018941049 16.29281110690708
6.499999999999991 84.85344562865193 15.8722429874893
6.599999999999991 83.14061364804215 15.09615017090731
6.69999999999999 82.08321746357043 15.018230209705393
6.79999999999999 82.33505905478005 14.328808636703538
6.89999999999999 81.53146818425348 15.141486614794525
6.999999999999989 81.07835373259176 14.93988216503241
7.099999999999989 81.09056012545169 14.539961793918526
7.199999999999989 81.05830727918055 14.997413023813468
7.299999999999988 79.5645093784133 14.28646306693562
7.399999999999988 79.71572302532495 14.370527516927073
7.499999999999988 78.71897017696847 14.245214642306147
7.599999999999987 79.56819121813416 13.951850755377201
7.699999999999987 77.79732448191254 13.63551023302212
7.7999999999999865 77.44272385912538 13.555073068024543
7.899999999999986 77.92950312069495 13.559499354685775
7.999999999999986 77.32180235764227 13.307227466169522
