# Rounds: 50, repetitions: 1000
# Good arm ~ N(5.0,1.0), 10 bad arm(s) ~ N(0.5,1.0)
# Observation noise range from 0.5 to 8.0 with step size 0.1

# Observation noise | mean | standard deviation

0.5 209.43854154723536 8.555234541508858
0.6 208.872228971115 8.962992635407725
0.7 208.61322597596674 9.188706062268981
0.7999999999999999 208.46668392513573 9.298082648862552
0.8999999999999999 208.45243075316841 9.06857383144827
0.9999999999999999 207.37848399284204 9.437673583125228
1.0999999999999999 206.0834786502043 9.723312513978488
1.1999999999999997 206.1244828892757 10.180514898220332
1.2999999999999996 204.9153397034777 10.516301510467411
1.3999999999999995 202.65615531544438 11.333183259692095
1.4999999999999993 201.18363656947966 11.960344142190925
1.5999999999999992 198.9094191142792 12.480300620060536
1.699999999999999 196.13220509656404 13.593597232106019
1.799999999999999 193.26432686436652 13.838493401653043
1.8999999999999988 190.33943148958997 14.272317692486068
1.9999999999999987 186.48178605952884 15.358458160951665
2.0999999999999988 183.16701478629898 16.111203838023176
2.199999999999999 180.24715093898297 17.239936415451893
2.299999999999999 175.94609215092174 17.33745195529986
2.399999999999999 173.51072650182786 17.229943961373635
2.499999999999999 167.68904705639764 18.010098367733445
2.599999999999999 164.29505781199393 19.41839975650159
2.6999999999999993 160.36573315927143 20.681555970833315
2.7999999999999994 155.36501643833506 20.680355838325124
2.8999999999999995 151.80143234434485 21.17909947096536
2.9999999999999996 148.55727233001326 21.54281008007416
3.0999999999999996 146.37678268800738 21.718102145042042
3.1999999999999997 140.64650936130323 21.182557769355448
3.3 136.20359664669508 23.314522584227852
3.4 132.51414758891565 23.435074646846594
3.5 129.02258366922254 23.43036966640008
3.6 125.25065429371183 22.72813598701186
3.7 121.53488254370419 23.3646943939463
3.8000000000000003 117.47276404361205 23.83629643799058
3.9000000000000004 113.40921722003309 23.9649469239962
4.0 110.83638347461968 23.85765162652923
4.1 108.35473870837974 23.816496764522615
4.199999999999999 104.76598419662453 23.988998694515033
4.299999999999999 101.47662157309524 23.789543818901006
4.399999999999999 99.29226753016148 23.29252752127607
4.499999999999998 97.0627944332991 22.98874564888495
4.599999999999998 94.5974212601326 23.185804518037287
4.6999999999999975 89.82319666284464 22.67613926679315
4.799999999999997 90.14168877839577 22.72495309223248
4.899999999999997 86.34648398186366 22.113970279740023
4.9999999999999964 86.31420302879124 22.783601290172214
5.099999999999996 83.42819096996269 21.024160850600364
5.199999999999996 81.06348358941976 21.662540840401853
5.299999999999995 80.66461232883486 20.86710003294391
5.399999999999995 77.64829549949744 20.180534643849494
5.499999999999995 76.9322928461744 19.90607570016929
5.599999999999994 74.00281859674007 19.98198863228799
5.699999999999994 72.63040658503259 20.09281531097432
5.799999999999994 72.91331819148047 19.447230161147974
5.899999999999993 71.86073737867089 19.331978733601186
5.999999999999993 69.81097155546973 19.161916656106
6.0999999999999925 69.30056817137576 18.12693721307524
6.199999999999992 67.81378332282515 17.996382779620703
6.299999999999992 67.78760397898365 17.75213310201871
6.3999999999999915 65.50922123515463 18.38361555431468
6.499999999999991 65.26862422118131 17.803868227340516
6.599999999999991 64.53673913970316 17.70520336618189
6.69999999999999 63.253172243414596 17.21270234778682
6.79999999999999 63.32442138110992 17.026923923781847
6.89999999999999 62.69759206676913 17.20058797209051
6.999999999999989 62.336255462492026 16.681775805524524
7.099999999999989 61.27017765577805 16.480081661378325
7.199999999999989 60.346304381248245 16.43336052621683
7.299999999999988 60.19137832184414 16.235901158304003
7.399999999999988 58.865988674100905 15.945978796524873
7.499999999999988 59.78904028233826 15.826464124620797
7.599999999999987 59.19100490545021 16.194645225762816
7.699999999999987 58.83620131816684 16.01558346676729
7.7999999999999865 57.50623310478883 15.467268564944746
7.899999999999986 57.51469144263449 15.077299002498458
7.999999999999986 57.08472657176966 15.12198660536768
