# Rounds: 50, repetitions: 1000
# Good arm ~ N(5.0,1.0), 10 bad arm(s) ~ N(2.0,1.0)
# Observation noise range from 0.5 to 8.0 with step size 0.1

# Observation noise | mean | standard deviation

0.5 220.3831520225227 11.271387217835601
0.6 220.42945250362303 10.705828448959894
0.7 219.49233731183355 11.816049348530889
0.7999999999999999 218.10264359796426 11.613674338011489
0.8999999999999999 217.0167420291336 11.485513974013438
0.9999999999999999 216.00267178170074 11.394263229786016
1.0999999999999999 213.36072543439622 11.967297081191456
1.1999999999999997 211.6197654130928 12.609177153221264
1.2999999999999996 209.3535851053509 13.551770608081096
1.3999999999999995 206.8739910633529 14.42674605987799
1.4999999999999993 205.15411789065357 14.709911279854758
1.5999999999999992 201.69566622376968 14.922127041963815
1.699999999999999 199.54709110256738 15.608772721434383
1.799999999999999 196.40800051104486 16.145943318640704
1.8999999999999988 192.6567105671176 16.47864678752846
1.9999999999999987 189.73257842406338 17.065387085477127
2.0999999999999988 187.02569522924523 17.71016600359082
2.199999999999999 182.79164729544445 18.326705248265636
2.299999999999999 180.7207388214484 19.38815435908333
2.399999999999999 177.78030634033166 18.89575815324808
2.499999999999999 174.2077040568159 19.13813531242045
2.599999999999999 172.0104964823437 18.70547086544184
2.6999999999999993 167.22837325693953 19.00454827479719
2.7999999999999994 165.5021138038039 19.61426086888603
2.8999999999999995 164.15339664297593 19.792444425766522
2.9999999999999996 161.73138883033474 19.40171758285295
3.0999999999999996 158.75630688485154 19.72862362097062
3.1999999999999997 155.79382155058147 19.317674124512518
3.3 154.61828826016745 19.31919196112433
3.4 151.24574073504675 19.180727074276035
3.5 149.9876359283544 18.970290222121534
3.6 147.72965612635156 18.554612024057086
3.7 145.3470642836202 18.28083976941036
3.8000000000000003 144.15072339594641 17.217587040189017
3.9000000000000004 142.24267921959165 17.94028895123315
4.0 141.19232289753958 17.431260618002426
4.1 140.2068885616189 17.095251439310914
4.199999999999999 138.53100905252003 16.927019920324778
4.299999999999999 138.51604920537315 16.46350164505239
4.399999999999999 134.6783875408243 16.425272366425396
4.499999999999998 135.53926539512898 16.214833411038313
4.599999999999998 134.70138833449852 15.730549939226714
4.6999999999999975 133.28518842468026 16.26264892392559
4.799999999999997 132.26411889545471 14.82980946131179
4.899999999999997 131.83249657923645 14.947741456744282
4.9999999999999964 129.96911122258732 14.15111061667452
5.099999999999996 129.22170194634288 14.438473418381564
5.199999999999996 128.70541387219623 14.222906938557815
5.299999999999995 128.40496775193523 14.121704291049655
5.399999999999995 127.19485014207454 13.746938912145309
5.499999999999995 126.81249272710573 13.450527596600187
5.599999999999994 127.64592871315247 13.776304804569786
5.699999999999994 126.13351790888757 13.513018337814382
5.799999999999994 126.3176271717701 13.140889209858127
5.899999999999993 124.90005258400596 12.66568740132397
5.999999999999993 124.25215331131776 12.800087386161668
6.0999999999999925 124.06652485016609 12.270849146430134
6.199999999999992 124.01055044416633 12.814502053927972
6.299999999999992 124.41195790435137 12.959234312446263
6.3999999999999915 123.16405736768232 11.941687742192576
6.499999999999991 122.79341714873007 12.280637326680036
6.599999999999991 123.1160952731671 12.307095580560242
6.69999999999999 122.46831087203421 12.015589367562544
6.79999999999999 121.79261374671793 11.736374409962506
6.89999999999999 121.26039130733419 11.801786867026564
6.999999999999989 121.94641517290759 11.529254089641114
7.099999999999989 121.4321481354707 11.503639626826121
7.199999999999989 121.85877491183123 11.743018746719555
7.299999999999988 121.6487773537748 11.579216332313393
7.399999999999988 120.47927366490752 11.39638320302861
7.499999999999988 120.24582585609906 11.254244730211953
7.599999999999987 121.23016075559279 11.234133764327625
7.699999999999987 119.88779659280416 10.653047573099192
7.7999999999999865 119.80761814948964 11.12515283435865
7.899999999999986 120.18501851177737 11.204814766431523
7.999999999999986 120.26614688623728 11.151742677646105
