# Rounds: 1000, repetitions: 1000
# Good arm ~ N(5.0,1.0), 10 bad arm(s) ~ N(4.0,1.0)
# Observation noise range from 0.5 to 8.0 with step size 0.1

# Observation noise | mean | standard deviation

0.5 4946.012765317881 122.11845878073272
0.6 4948.971903063352 88.63757101482099
0.7 4941.566307453191 82.37317420103082
0.7999999999999999 4935.62760755366 57.97717149883239
0.8999999999999999 4929.584884662553 54.18168923443021
0.9999999999999999 4920.144390486649 40.65470254621663
1.0999999999999999 4907.740068124959 48.53056897982459
1.1999999999999997 4897.586640795582 42.37479147736765
1.2999999999999996 4889.076179827277 40.17914237789545
1.3999999999999995 4873.095834468018 39.744379802749144
1.4999999999999993 4860.272881267661 40.086917840175865
1.5999999999999992 4848.050868940658 41.789811315414184
1.699999999999999 4833.667488048082 43.08434199596651
1.799999999999999 4821.902264578915 45.38406902819144
1.8999999999999988 4807.857517919323 43.529321177996444
1.9999999999999987 4793.901541333522 44.09356930603481
2.0999999999999988 4779.674205836736 46.25186583894853
2.199999999999999 4765.350655363025 47.81028848498394
2.299999999999999 4752.316349028065 46.58026864711427
2.399999999999999 4739.821751646533 47.46059212064516
2.499999999999999 4724.372867823383 48.561611757207686
2.599999999999999 4709.821553906634 49.65893411105205
2.6999999999999993 4698.848631165535 48.13471946233845
2.7999999999999994 4688.494182960083 49.96216133627009
2.8999999999999995 4668.698311021555 51.59776199971443
2.9999999999999996 4657.449455326023 51.01318923285699
3.0999999999999996 4647.341211803108 52.56016863160784
3.1999999999999997 4633.225049463308 50.636014568852566
3.3 4618.2161980937935 54.28782789055963
3.4 4606.307091816368 55.22063881434065
3.5 4594.817477788487 52.213282130124384
3.6 4584.160589977213 54.546874204681664
3.7 4573.110836438335 53.39257722488775
3.8000000000000003 4559.152961913424 56.109139001391036
3.9000000000000004 4549.891532981887 56.01524625101715
4.0 4541.621598977714 57.161088256048096
4.1 4528.342500226211 57.08724582397373
4.199999999999999 4520.875723571204 57.68826040132609
4.299999999999999 4509.827115997775 55.66456143368419
4.399999999999999 4499.842948936427 57.792451682245485
4.499999999999998 4489.5635567766585 57.217706331133584
4.599999999999998 4478.223542461296 57.5681093552041
4.6999999999999975 4469.328222085328 55.652377433017314
4.799999999999997 4458.371502610395 57.26686625269396
4.899999999999997 4451.424060402556 58.015714697727645
4.9999999999999964 4445.483603559201 56.50959310343856
5.099999999999996 4432.321029199947 55.96261681777966
5.199999999999996 4426.439764275363 53.864092639065646
5.299999999999995 4420.843527334519 57.908616070952974
5.399999999999995 4413.630849762472 55.705164997655174
5.499999999999995 4405.367482951972 56.67782062389991
5.599999999999994 4400.794205399595 57.3585709786132
5.699999999999994 4394.63784408778 57.734242870989306
5.799999999999994 4385.322169919237 53.999115735254826
5.899999999999993 4377.792195522882 52.510318298569125
5.999999999999993 4373.377101115569 54.94095875852472
6.0999999999999925 4367.687693657354 56.673930355303476
6.199999999999992 4359.62840592799 55.36946397247617
6.299999999999992 4355.71947756998 52.62809237312257
6.3999999999999915 4346.662848041337 54.97412263590097
6.499999999999991 4343.522672296639 52.00049853789547
6.599999999999991 4339.535049837478 54.301261109202265
6.69999999999999 4334.058829414381 52.49010004745134
6.79999999999999 4325.94382795612 51.800762188449404
6.89999999999999 4325.850788109273 53.10153180092776
6.999999999999989 4320.699337942839 51.6328677930178
7.099999999999989 4314.659716205754 52.23951297404422
7.199999999999989 4309.99692881595 52.29681300580265
7.299999999999988 4308.705623472138 51.472586508012306
7.399999999999988 4301.3781025718745 50.533188269827214
7.499999999999988 4296.873551632907 51.5554732477617
7.599999999999987 4293.872968399659 50.403290755704404
7.699999999999987 4287.326153653169 51.239142704443054
7.7999999999999865 4283.977424581921 51.621478568005
7.899999999999986 4280.508954601733 48.99434462793649
7.999999999999986 4277.344881823485 49.207852715758456
