# Rounds: 1000, repetitions: 1000
# Good arm ~ N(5.0,1.0), 10 bad arm(s) ~ N(4.5,1.0)
# Observation noise range from 0.5 to 8.0 with step size 0.1

# Observation noise | mean | standard deviation

0.5 4915.323415230543 116.67430092417408
0.6 4908.351680840296 111.03262733538355
0.7 4903.830312137639 95.62495114011085
0.7999999999999999 4900.747015181955 75.88332103143159
0.8999999999999999 4887.004358223337 70.42925277904885
0.9999999999999999 4875.452349789364 61.31868370605179
1.0999999999999999 4861.730250824116 60.21716917521339
1.1999999999999997 4850.807415514428 53.200791834445674
1.2999999999999996 4836.817792268206 52.10268015895908
1.3999999999999995 4820.657992730062 54.05677662889616
1.4999999999999993 4806.580425907594 53.35344039904189
1.5999999999999992 4795.798356840704 52.614052473266675
1.699999999999999 4781.035982961628 56.96825430273363
1.799999999999999 4769.401812311671 53.7595612405039
1.8999999999999988 4755.875121148434 55.880696505457024
1.9999999999999987 4746.894439578734 53.626586310767685
2.0999999999999988 4734.370756959193 54.185333677558226
2.199999999999999 4724.863215384231 53.943241266937164
2.299999999999999 4716.0934695678425 52.18179372941028
2.399999999999999 4706.3993969684625 51.80090360709669
2.499999999999999 4699.232663136862 49.9576597778844
2.599999999999999 4690.405367306958 50.90634044929657
2.6999999999999993 4684.894601702001 49.06210936153992
2.7999999999999994 4677.1754562260085 49.68173219850653
2.8999999999999995 4674.855666829129 47.26732871254356
2.9999999999999996 4667.309611249543 47.58908146578232
3.0999999999999996 4663.921413436955 44.75625192750849
3.1999999999999997 4657.688229724643 46.007150214861674
3.3 4653.338341485381 44.86539067046335
3.4 4650.5395734694375 45.16807446435257
3.5 4643.738763523244 44.01403549963209
3.6 4640.7358623894115 43.80944666696062
3.7 4637.119932561133 42.713840999877924
3.8000000000000003 4633.086433739325 40.39608275941077
3.9000000000000004 4632.701317224029 41.05919684842526
4.0 4631.425780902659 41.32314873462104
4.1 4627.070426167339 41.330338526064516
4.199999999999999 4624.2867416144945 40.14716410312304
4.299999999999999 4622.120748277872 40.14140984585086
4.399999999999999 4620.256368871935 40.8642382979569
4.499999999999998 4616.539899337495 38.979095496451976
4.599999999999998 4615.809607768755 39.097054483813125
4.6999999999999975 4612.106888227838 38.863078038959074
4.799999999999997 4614.078478606584 38.61762244333218
4.899999999999997 4609.619815975109 36.34964634616624
4.9999999999999964 4608.2556155582315 37.51901187428349
5.099999999999996 4606.156320663551 38.08985131212878
5.199999999999996 4606.411308866252 37.61227141326924
5.299999999999995 4604.786735001425 38.88242939934393
5.399999999999995 4601.9955465919575 38.63867945771544
5.499999999999995 4602.729354230811 38.334354991422025
5.599999999999994 4599.6985519531 37.09678493834173
5.699999999999994 4599.240108162889 36.15260371460401
5.799999999999994 4598.028222750256 36.94623879727097
5.899999999999993 4597.272557450502 36.68098157983077
5.999999999999993 4595.216154516199 36.46747622933097
6.0999999999999925 4594.32691472689 37.84756225889219
6.199999999999992 4592.980710206949 36.58383269159703
6.299999999999992 4590.2197236726 33.639029742590665
6.3999999999999915 4589.758777255038 35.839540838289125
6.499999999999991 4591.671716392174 36.19423559446423
6.599999999999991 4590.612979623689 37.81227662068213
6.69999999999999 4590.9364096927575 36.073246387868345
6.79999999999999 4587.035335511509 35.20255311623705
6.89999999999999 4588.48356398936 35.40119187716073
6.999999999999989 4587.977854475131 34.725292305559556
7.099999999999989 4585.534710670035 36.34245056064567
7.199999999999989 4584.032876545258 36.46228290136913
7.299999999999988 4584.634847504458 34.630534426645625
7.399999999999988 4582.794391425219 34.60018150465115
7.499999999999988 4584.899397413681 35.11554858828014
7.599999999999987 4581.573400453892 36.764600034717
7.699999999999987 4582.8813876560525 35.88926353316365
7.7999999999999865 4583.30273612267 34.892200510882525
7.899999999999986 4581.356463433196 34.4909525786671
7.999999999999986 4580.488335773944 34.11817401400041
