# Rounds: 1000, repetitions: 1000
# Good arm ~ N(5.0,0.0), 10 bad arm(s) ~ N(4.0,0.0)
# Observation noise range from 0.5 to 8.0 with step size 0.1

# Observation noise | mean | standard deviation

0.5 4976.0399999999945 4.004801922497351
0.6 4967.915999999998 3.121969040636179
0.7 4959.0010000000075 3.1042930975724206
0.7999999999999999 4949.259000000002 2.8986757875487585
0.8999999999999999 4938.3049999999985 3.238589733736492
0.9999999999999999 4927.1019999999935 3.5173808391995354
1.0999999999999999 4915.481999999997 3.4594282249590953
1.1999999999999997 4903.610000000003 4.003989501975751
1.2999999999999996 4891.2720000000045 4.184199269098387
1.3999999999999995 4878.559999999995 4.6134242904467015
1.4999999999999993 4865.645000000004 5.011595663168715
1.5999999999999992 4852.30400000001 5.212941468955776
1.699999999999999 4838.911999999989 5.534879482959971
1.799999999999999 4825.649999999995 6.006461319077797
1.8999999999999988 4812.177999999998 6.127141083560697
1.9999999999999987 4798.303000000003 6.675758889950795
2.0999999999999988 4784.484000000001 6.803530850377005
2.199999999999999 4770.662999999999 7.170135413075636
2.299999999999999 4757.493999999992 7.5415408796106425
2.399999999999999 4743.22199999999 7.728417978114597
2.499999999999999 4729.570999999994 8.598074545262183
2.599999999999999 4715.852000000002 8.508612841849901
2.6999999999999993 4702.359999999997 9.04512101711275
2.7999999999999994 4689.580999999992 9.385282229241811
2.8999999999999995 4676.078999999992 10.055141215560518
2.9999999999999996 4663.314000000005 10.099871851237074
3.0999999999999996 4650.308 10.357915930457356
3.1999999999999997 4638.1100000000015 10.561318167797136
3.3 4625.397999999998 11.290219885594137
3.4 4613.730000000003 11.368304110039416
3.5 4601.8870000000015 11.717231948055174
3.6 4589.453000000002 12.107203449821752
3.7 4577.5540000000055 12.649865734588001
3.8000000000000003 4566.149999999999 12.544515330010377
3.9000000000000004 4554.696000000009 12.880896766199996
4.0 4544.629999999991 13.396214336840016
4.1 4534.118999999997 13.91195102713429
4.199999999999999 4523.075000000007 14.263969848391987
4.299999999999999 4512.935000000002 14.90768305317812
4.399999999999999 4503.321999999993 14.51499228387678
4.499999999999998 4493.326000000005 15.824162793908817
4.599999999999998 4484.567999999999 15.297103561699945
4.6999999999999975 4475.7329999999965 15.91241389343291
4.799999999999997 4466.146000000002 15.743205916602028
4.899999999999997 4457.876999999997 16.571798197404437
4.9999999999999964 4450.150000000008 16.026988624328776
5.099999999999996 4440.614000000002 17.139742552756605
5.199999999999996 4432.661 17.699077273584997
5.299999999999995 4424.930999999999 16.855870175086203
5.399999999999995 4418.016000000001 17.658243331587617
5.499999999999995 4410.301999999997 16.7112555501393
5.599999999999994 4404.954999999995 17.994298257219423
5.699999999999994 4395.594000000004 18.889944255979
5.799999999999994 4389.4580000000005 18.276385371901693
5.899999999999993 4382.764999999996 18.74404209646662
5.999999999999993 4376.085999999999 19.43034076237831
6.0999999999999925 4370.220000000002 18.5884138411304
6.199999999999992 4365.211999999997 19.329684236755984
6.299999999999992 4358.515000000003 19.166301733045028
6.3999999999999915 4352.858999999998 18.93144258947318
6.499999999999991 4348.5489999999945 19.14649281688914
6.599999999999991 4341.837999999994 19.455134496020804
6.69999999999999 4336.289 19.53845516488521
6.79999999999999 4332.160000000003 19.603129410445725
6.89999999999999 4326.607000000001 19.65244945979428
6.999999999999989 4322.048 19.875027363823005
7.099999999999989 4317.649999999997 21.30458601769548
7.199999999999989 4312.553999999999 20.60474798777308
7.299999999999988 4308.028 21.140722460364216
7.399999999999988 4304.260999999992 20.090657368874535
7.499999999999988 4299.532999999993 20.909809447508874
7.599999999999987 4295.313000000012 21.108970122192577
7.699999999999987 4290.944000000003 20.59439227054291
7.7999999999999865 4286.272000000002 21.601449919823423
7.899999999999986 4283.512000000001 21.967348962048696
7.999999999999986 4279.403999999999 20.968893115242803
