# Rounds: 1000, repetitions: 1000
# Good arm ~ N(5.0,1.0), 10 bad arm(s) ~ N(2.0,1.0)
# Observation noise range from 0.5 to 8.0 with step size 0.1

# Observation noise | mean | standard deviation

0.5 4967.238252497641 33.24398399187268
0.6 4967.979569096854 32.646815135980944
0.7 4963.847182658647 33.21066536929555
0.7999999999999999 4961.892684982275 32.57129319834362
0.8999999999999999 4959.5594336075765 33.28371126312435
0.9999999999999999 4957.4285357825665 33.54974295976436
1.0999999999999999 4949.630720958127 33.19833366786436
1.1999999999999997 4946.408486627032 33.15592169374422
1.2999999999999996 4939.700773032417 32.72357617569148
1.3999999999999995 4932.617391882828 33.14182127073955
1.4999999999999993 4925.767711205439 32.42407961167481
1.5999999999999992 4918.874590396572 34.13365534548086
1.699999999999999 4911.176141996071 34.65880391599124
1.799999999999999 4904.227914891037 33.705073789888864
1.8999999999999988 4893.637962296672 35.38729735318768
1.9999999999999987 4883.857775987388 35.705426999781906
2.0999999999999988 4877.412621919789 35.39758292387466
2.199999999999999 4870.186534052594 34.57864766320756
2.299999999999999 4859.0329150632715 35.56287430575294
2.399999999999999 4849.797842754691 36.51151093538748
2.499999999999999 4839.914675021694 36.415574511599054
2.599999999999999 4834.105589523083 36.33658656594988
2.6999999999999993 4822.1782212066555 36.53895251681802
2.7999999999999994 4811.916483193868 35.98107247744101
2.8999999999999995 4800.991914873991 38.52719187024199
2.9999999999999996 4791.432161836406 37.12388158262431
3.0999999999999996 4780.399917273135 37.56575133099437
3.1999999999999997 4767.987511931944 38.121661929891836
3.3 4761.941484542702 39.0104990171461
3.4 4748.551442084382 38.780009608086914
3.5 4738.233437061108 39.809187682164435
3.6 4727.132909403221 41.10248929725581
3.7 4713.300976004814 40.67099900466973
3.8000000000000003 4703.619681459151 38.68852854040914
3.9000000000000004 4690.053042600719 41.26180302424263
4.0 4680.430249475272 41.600940766317684
4.1 4667.701314271899 42.79499097064577
4.199999999999999 4658.029758015229 42.44129027808835
4.299999999999999 4644.499483607932 43.075477123175865
4.399999999999999 4630.197223903902 41.94285742669844
4.499999999999998 4615.602737730657 44.06514159077092
4.599999999999998 4608.28633051532 43.05476783385951
4.6999999999999975 4592.562091137913 43.07313753708894
4.799999999999997 4582.101101909841 43.178972246615416
4.899999999999997 4568.76780412764 44.870304215254365
4.9999999999999964 4555.93909128591 45.7532585004991
5.099999999999996 4539.455059410562 45.147819838026315
5.199999999999996 4526.633605408665 46.340991080257986
5.299999999999995 4516.457181150898 48.204406253627596
5.399999999999995 4498.762153813666 48.59511524839669
5.499999999999995 4488.008875419152 48.1751726183868
5.599999999999994 4478.405718259693 48.56958967687262
5.699999999999994 4462.228094071627 48.69792327653157
5.799999999999994 4449.88665504885 48.66174859667698
5.899999999999993 4433.168616436334 50.03545966170076
5.999999999999993 4421.515673508572 50.05976838411656
6.0999999999999925 4403.426935948596 50.111377623784215
6.199999999999992 4389.797879190828 51.99595883516726
6.299999999999992 4380.612634826945 51.001540494510486
6.3999999999999915 4363.443738086211 52.628461889328825
6.499999999999991 4350.06233839958 53.82977956421601
6.599999999999991 4332.59886842959 52.56580498786372
6.69999999999999 4320.927923021278 54.44914567484626
6.79999999999999 4305.15648298873 56.55239077137801
6.89999999999999 4292.482644902582 54.860542829418875
6.999999999999989 4277.5888246411305 55.93779213069209
7.099999999999989 4258.961063421437 58.55574368277948
7.199999999999989 4249.7424458851265 55.813886290956724
7.299999999999988 4232.254315634045 55.564637952672456
7.399999999999988 4215.949227706795 57.104297772077445
7.499999999999988 4201.2947908796195 58.18769407179779
7.599999999999987 4191.884284921108 59.908848129923335
7.699999999999987 4174.778032363619 58.264669530144516
7.7999999999999865 4158.904718816121 61.84379552501982
7.899999999999986 4142.555128651038 61.49703798170779
7.999999999999986 4129.312914146153 63.212627422355645
