# Rounds: 1000, repetitions: 1000
# Good arm ~ N(5.0,1.0), 10 bad arm(s) ~ N(0.0,1.0)
# Observation noise range from 0.5 to 8.0 with step size 0.1

# Observation noise | mean | standard deviation

0.5 4954.590332589322 31.92705107966548
0.6 4953.71646179169 32.258104221866084
0.7 4953.223813891074 31.646580367789053
0.7999999999999999 4953.968168232844 30.857563637893474
0.8999999999999999 4953.954771813642 31.129671743107366
0.9999999999999999 4950.682862983068 31.91467130897999
1.0999999999999999 4949.948949718239 31.497129099562425
1.1999999999999997 4949.232936958831 32.720817920182554
1.2999999999999996 4944.42229887386 32.79471888279759
1.3999999999999995 4941.536810267459 32.956064087901346
1.4999999999999993 4934.3609010203 32.44967202467975
1.5999999999999992 4930.426107341378 34.05105123488484
1.699999999999999 4923.457543669979 34.46903609707287
1.799999999999999 4916.34769494005 34.36701534225172
1.8999999999999988 4908.895646617508 33.753527685236214
1.9999999999999987 4901.815489983118 31.8525936790429
2.0999999999999988 4895.5859063090165 34.65064380916365
2.199999999999999 4891.529424034953 32.74992648419726
2.299999999999999 4882.215056881825 34.48161358464727
2.399999999999999 4874.774741642607 34.18084808707516
2.499999999999999 4866.568774281906 34.41542339636116
2.599999999999999 4858.522498704762 35.256162230866266
2.6999999999999993 4850.44847546339 35.07525880173444
2.7999999999999994 4838.631275676988 36.33740030361255
2.8999999999999995 4834.3056175521415 35.19763929913897
2.9999999999999996 4823.682701549588 34.858567051865876
3.0999999999999996 4815.489264350375 35.264761574816816
3.1999999999999997 4803.852295097532 35.952763690302056
3.3 4797.507457532987 36.294148863658684
3.4 4787.878637800402 36.71651831864356
3.5 4775.893967886175 37.28116301718176
3.6 4767.878670425888 36.748849449066206
3.7 4756.695149897537 37.42243550034044
3.8000000000000003 4745.388229020237 37.18994437024433
3.9000000000000004 4736.053705309687 37.00580892953103
4.0 4723.334388376688 39.31220397842842
4.1 4715.341899780534 37.75710568321729
4.199999999999999 4702.271667351459 38.14927458760352
4.299999999999999 4692.51307076504 39.06182244370948
4.399999999999999 4681.416895437386 40.118779208730246
4.499999999999998 4669.9753754390285 38.578409921632804
4.599999999999998 4661.205264205363 39.92724580916364
4.6999999999999975 4646.898309245496 40.473039056618134
4.799999999999997 4630.72100056361 40.416545661734915
4.899999999999997 4621.300952802111 39.31748371930756
4.9999999999999964 4611.8986022677345 40.3496045210368
5.099999999999996 4595.52359856814 40.8707819821113
5.199999999999996 4585.044058895014 41.889394639996205
5.299999999999995 4571.5641414666525 42.41597019299643
5.399999999999995 4556.8792985131995 40.54956353689633
5.499999999999995 4548.772572736598 41.15783544614155
5.599999999999994 4531.227178469093 44.20002859312422
5.699999999999994 4521.292124738972 42.90620140933486
5.799999999999994 4506.930843776654 44.35102817577213
5.899999999999993 4491.656569101996 46.38346934300231
5.999999999999993 4479.092836794321 45.66587024741861
6.0999999999999925 4465.594441450337 46.3801808512343
6.199999999999992 4451.498730611976 46.73855244717881
6.299999999999992 4435.589523405879 47.72625286536235
6.3999999999999915 4421.5038906331065 49.144580971548955
6.499999999999991 4406.914573510362 47.67811724496499
6.599999999999991 4395.692528486049 47.23995973658211
6.69999999999999 4379.083092813125 48.294933159758195
6.79999999999999 4363.608246857467 49.30519690150103
6.89999999999999 4349.102625603664 49.32505998752371
6.999999999999989 4338.884761546205 50.359509095542556
7.099999999999989 4317.808884997942 51.11154660096351
7.199999999999989 4304.4348099309245 52.933494574409934
7.299999999999988 4289.657229453402 52.39295983274517
7.399999999999988 4275.356781537269 53.2279106651526
7.499999999999988 4256.5821636616765 54.74218230103827
7.599999999999987 4239.703897823307 52.01481382359597
7.699999999999987 4226.739505397103 54.010437398026994
7.7999999999999865 4209.122436724867 53.804988171152104
7.899999999999986 4195.642769729038 51.78535567932655
7.999999999999986 4178.088988246801 54.18000400712421
