# Rounds: 1000, repetitions: 1000
# Good arm ~ N(5.0,0.0), 10 bad arm(s) ~ N(0.0,0.0)
# Observation noise range from 0.5 to 8.0 with step size 0.1

# Observation noise | mean | standard deviation

0.5 4954.689999999997 1.5988922591771164
0.6 4954.625000000002 1.5610290874329702
0.7 4954.55999999999 2.027439397493902
0.7999999999999999 4954.344999999999 2.646314036160139
0.8999999999999999 4954.235000000004 2.9065827397862147
0.9999999999999999 4953.970000000001 3.114289453278028
1.0999999999999999 4953.780000000006 3.588101792657867
1.1999999999999997 4952.890000000003 4.6496795071832455
1.2999999999999996 4951.675000000005 5.549790552369953
1.3999999999999995 4947.995000000002 6.808180838250871
1.4999999999999993 4942.5799999999945 7.855272452646356
1.5999999999999992 4934.604999999992 8.181436971028386
1.699999999999999 4925.394999999997 8.40771459224589
1.799999999999999 4916.8349999999955 7.821057725393819
1.8999999999999988 4909.940000000012 6.967420250346977
1.9999999999999987 4903.784999999998 6.530039541719204
2.0999999999999988 4898.199999999989 6.9360008728451445
2.199999999999999 4892.374999999997 7.248235089448431
2.299999999999999 4884.875000000005 8.02332529246751
2.399999999999999 4877.370000000001 9.185176507148189
2.499999999999999 4868.899999999995 9.68936963294744
2.599999999999999 4860.704999999998 9.320130891776166
2.6999999999999993 4852.180000000009 9.515153080121069
2.7999999999999994 4843.520000000003 10.183973355881976
2.8999999999999995 4834.935000000001 9.600153016381421
2.9999999999999996 4825.529999999999 10.852966732045488
3.0999999999999996 4817.640000000003 10.47330368556599
3.1999999999999997 4808.154999999993 11.21368457384642
3.3 4797.855 11.406317507376281
3.4 4788.6600000000035 11.926719861162553
3.5 4779.27 12.079445890148037
3.6 4769.245000000004 12.847958789046762
3.7 4759.384999999999 12.500121120534327
3.8000000000000003 4748.9999999999945 13.44547436057131
3.9000000000000004 4737.794999999998 13.33757346243564
4.0 4727.710000000002 14.25338763449093
4.1 4716.244999999995 13.918286305924658
4.199999999999999 4705.695000000008 14.543159164310886
4.299999999999999 4694.740000000002 14.530779178817054
4.399999999999999 4683.024999999997 15.323484727182102
4.499999999999998 4672.000000000003 16.131032521516072
4.599999999999998 4661.095000000002 15.97595712958089
4.6999999999999975 4648.795 16.419274270428886
4.799999999999997 4636.404999999996 16.482495188764602
4.899999999999997 4624.224999999998 16.37658595579578
4.9999999999999964 4611.2549999999965 18.03261351413464
5.099999999999996 4599.235 18.50762835447337
5.199999999999996 4587.774999999996 18.743684288332986
5.299999999999995 4573.480000000002 18.79475572713951
5.399999999999995 4562.7599999999975 19.068193307075518
5.499999999999995 4548.859999999997 19.793741237881104
5.599999999999994 4535.554999999986 20.34283180399934
5.699999999999994 4521.440000000001 20.98730251525589
5.799999999999994 4509.360000000003 21.143259858343566
5.899999999999993 4495.5800000000045 20.751969647343035
5.999999999999993 4482.164999999996 22.239207660286898
6.0999999999999925 4468.499999999994 22.848896517601734
6.199999999999992 4454.53 22.43841755968059
6.299999999999992 4440.005000000005 23.99793482522769
6.3999999999999915 4424.64 23.179898785536345
6.499999999999991 4410.620000000002 23.734551374081803
6.599999999999991 4394.24 25.078902514889904
6.69999999999999 4380.895000000006 25.270785258625956
6.79999999999999 4366.8299999999945 26.120554806193915
6.89999999999999 4352.729999999997 26.64971495733699
6.999999999999989 4338.4800000000005 26.49984607204055
7.099999999999989 4321.765000000003 25.672336158671747
7.199999999999989 4306.540000000007 27.220752549651696
7.299999999999988 4292.220000000003 28.778460691979344
7.399999999999988 4276.449999999995 28.286881193366806
7.499999999999988 4258.814999999996 30.11274734315274
7.599999999999987 4244.864999999998 30.373167505288357
7.699999999999987 4229.390000000002 30.205798951365317
7.7999999999999865 4213.7699999999995 31.737113043633098
7.899999999999986 4196.079999999995 30.6091574617878
7.999999999999986 4180.750000000003 31.368319551284102
