# Rounds: 5000, repetitions: 1000
# Good arm ~ N(5.0,1.0), 19 bad arm(s) ~ N(0.0,1.0)
# Observation noise range from 0.5 to 8.0 with step size 0.1

# Observation noise | mean | standard deviation

0.5 24911.343347731734 69.36058555718424
0.6 24907.784550044285 65.74690160313885
0.7 24904.559593049336 71.56097809842586
0.7999999999999999 24909.05788230471 71.51897216375534
0.8999999999999999 24903.642760202212 69.57011968844677
0.9999999999999999 24898.28543933393 69.88358211872801
1.0999999999999999 24900.028174147556 70.1387275895866
1.1999999999999997 24889.653114092704 70.87947398824788
1.2999999999999996 24881.329345557227 71.94324204610217
1.3999999999999995 24866.146105522745 73.48161544983367
1.4999999999999993 24850.407765113272 73.3911802461341
1.5999999999999992 24831.591637242316 71.17453524738964
1.699999999999999 24820.159098907618 72.0261664148963
1.799999999999999 24803.803858377953 75.16238695088045
1.8999999999999988 24787.36710756567 73.98325119916596
1.9999999999999987 24774.947655142045 72.3321522446889
2.0999999999999988 24756.511462737246 72.9650615159161
2.199999999999999 24734.676434761324 74.03571006760217
2.299999999999999 24714.139754242642 72.52198405130623
2.399999999999999 24700.570365108168 71.71132769649834
2.499999999999999 24680.846729611596 75.24763717740531
2.599999999999999 24661.263085307644 73.43533767343443
2.6999999999999993 24638.55628527603 75.45279528296128
2.7999999999999994 24616.643817384887 75.31305849338285
2.8999999999999995 24596.088029752886 74.35835930444219
2.9999999999999996 24573.339028562565 75.4978887445624
3.0999999999999996 24555.484096759526 75.13963035008814
3.1999999999999997 24528.548770252237 73.62052157177285
3.3 24500.62824877907 73.08987809437241
3.4 24476.858567099738 76.5231335886967
3.5 24452.195061109822 75.81225455476809
3.6 24427.02526035866 74.73738030174626
3.7 24404.818627304812 73.15700788978752
3.8000000000000003 24376.27393841986 77.44308521250602
3.9000000000000004 24348.190361826775 81.04545760567716
4.0 24327.992417315407 74.84972585203595
4.1 24295.805767070542 79.93587404413681
4.199999999999999 24261.165021274443 75.1304206574539
4.299999999999999 24239.81263477048 77.4112066896013
4.399999999999999 24215.722626441675 78.76151341537191
4.499999999999998 24183.233291528613 74.2226249621805
4.599999999999998 24148.576769918513 82.55215491968004
4.6999999999999975 24124.672361230983 80.16812313622287
4.799999999999997 24087.844793226926 79.8396929834954
4.899999999999997 24062.875766740104 81.46977273697449
4.9999999999999964 24024.87239380297 78.27000094530607
5.099999999999996 23991.374396703006 77.34944661751186
5.199999999999996 23968.624535828578 79.44012191511686
5.299999999999995 23930.90375403168 80.3756945734178
5.399999999999995 23894.37922306191 78.54506040207815
5.499999999999995 23867.01442147187 83.97901518315389
5.599999999999994 23834.48767220023 81.5033179139842
5.699999999999994 23804.03921998192 82.16489177178214
5.799999999999994 23770.420206334205 82.1285279624742
5.899999999999993 23733.383438290322 82.85131627067793
5.999999999999993 23696.691334840507 82.33950183902687
6.0999999999999925 23664.051086953066 83.6331119108518
6.199999999999992 23629.91376481733 82.77039287280786
6.299999999999992 23589.820340329446 84.98054922850048
6.3999999999999915 23552.558005279156 84.29309227881039
6.499999999999991 23518.638416063484 84.56940470305105
6.599999999999991 23479.926415888425 85.69430986273919
6.69999999999999 23444.01456463094 84.09216134739133
6.79999999999999 23404.3273462657 86.3500581539486
6.89999999999999 23375.517077589993 86.70291299095335
6.999999999999989 23326.91821279939 82.81480739996753
7.099999999999989 23291.388790386663 87.13723277280431
7.199999999999989 23249.5978604701 84.38066861829466
7.299999999999988 23217.061852611172 85.66552931393065
7.399999999999988 23177.515855259233 89.78445182533703
7.499999999999988 23142.132454362705 84.59931554015611
7.599999999999987 23093.25161646794 90.49541009811458
7.699999999999987 23061.642946106553 88.28614514932816
7.7999999999999865 23012.40104541541 90.60326790813667
7.899999999999986 22972.033673248923 86.51791543878882
7.999999999999986 22928.876974805004 89.62048353717731
