# Rounds: 5000, repetitions: 1000
# Good arm ~ N(5.0,2.0), 19 bad arm(s) ~ N(1.0,2.0)
# Observation noise range from 0.5 to 8.0 with step size 0.1

# Observation noise | mean | standard deviation

0.5 24858.10126980937 897.9530432165724
0.6 24894.326086959652 319.6062402295374
0.7 24895.889950960667 179.62588302951283
0.7999999999999999 24887.802980677734 151.2111737610921
0.8999999999999999 24867.767068365152 646.226825595188
0.9999999999999999 24881.925256043633 164.92336580993125
1.0999999999999999 24871.064933061527 149.9018749971546
1.1999999999999997 24862.047744921572 198.92831301050012
1.2999999999999996 24853.79134545281 143.05707304640086
1.3999999999999995 24842.002656162265 146.46361921433856
1.4999999999999993 24828.46801359468 145.5511384625205
1.5999999999999992 24810.66438775835 145.15850303292336
1.699999999999999 24799.25669784424 152.08691909590195
1.799999999999999 24778.810620310727 140.1740797200725
1.8999999999999988 24762.521561490797 146.50630311591044
1.9999999999999987 24741.99430079225 145.83986896285916
2.0999999999999988 24728.13361917172 144.68765868296776
2.199999999999999 24700.39830748298 150.0733279042238
2.299999999999999 24679.95314410536 145.85825665058803
2.399999999999999 24665.836801258392 148.9743770004754
2.499999999999999 24648.954220271433 146.3002831740271
2.599999999999999 24624.46481508361 151.23481113414536
2.6999999999999993 24593.156321240018 148.33146834170486
2.7999999999999994 24569.62268013037 147.93949939533113
2.8999999999999995 24546.02298116064 149.699395959387
2.9999999999999996 24511.024312429618 151.89927388229555
3.0999999999999996 24494.688527403396 148.45967150256382
3.1999999999999997 24474.098186463692 152.52394404249412
3.3 24441.13700433357 150.52435014327108
3.4 24416.345478007966 145.1472924896364
3.5 24380.87921602787 154.66006605358263
3.6 24358.19840637193 152.1692571920297
3.7 24334.202854581898 155.85756662276447
3.8000000000000003 24302.042593696788 152.38808341632796
3.9000000000000004 24284.513163461535 152.49792723583622
4.0 24246.330434679498 156.61206275017298
4.1 24211.45768524866 149.18122795049158
4.199999999999999 24190.872293103486 154.16296928932144
4.299999999999999 24150.87752514005 156.17788313148907
4.399999999999999 24120.34848878157 157.86424653668743
4.499999999999998 24089.237660872037 156.36865667217214
4.599999999999998 24068.637059157387 150.34786004358108
4.6999999999999975 24039.74842598056 156.14907381762214
4.799999999999997 23994.88478891096 163.7374259308814
4.899999999999997 23968.41467209385 160.2735707838921
4.9999999999999964 23927.51312840628 153.57312273379583
5.099999999999996 23904.19590748824 157.3860055591005
5.199999999999996 23864.892847483705 161.57422073136112
5.299999999999995 23835.571891995136 164.03974455126053
5.399999999999995 23793.429365209504 162.59779721564468
5.499999999999995 23759.241834317934 165.46413249342106
5.599999999999994 23728.55726479282 159.19891581774456
5.699999999999994 23686.606856781356 164.69245887553672
5.799999999999994 23656.899644809768 167.10739818892256
5.899999999999993 23609.35054490635 162.31266287575838
5.999999999999993 23578.247328300735 165.00974345678014
6.0999999999999925 23536.242391301803 163.798395194064
6.199999999999992 23499.72196778001 165.83427523075366
6.299999999999992 23463.423902133978 162.38083317004936
6.3999999999999915 23427.946428031315 159.8130277878375
6.499999999999991 23375.090990689805 160.28945580043967
6.599999999999991 23348.747695715592 169.93479402527407
6.69999999999999 23318.72291055562 171.34937166796874
6.79999999999999 23278.242218412575 171.48119143139982
6.89999999999999 23233.212087146403 169.10220186767327
6.999999999999989 23179.240936080572 175.50262240545445
7.099999999999989 23151.724997192014 171.0903963561062
7.199999999999989 23107.63988236691 175.9247026831509
7.299999999999988 23065.2162189579 166.85520992035865
7.399999999999988 23027.58593004916 180.20101153195964
7.499999999999988 22997.03003979361 169.9086194398833
7.599999999999987 22952.164978086825 175.0472625211461
7.699999999999987 22901.721275972643 177.17219349376612
7.7999999999999865 22860.255539723687 171.45320439695465
7.899999999999986 22815.06940660823 178.82405083032188
7.999999999999986 22770.324868462707 178.28647887421246
