# Rounds: 5000, repetitions: 1000
# Good arm ~ N(5.0,1.0), 19 bad arm(s) ~ N(3.0,1.0)
# Observation noise range from 0.5 to 8.0 with step size 0.1

# Observation noise | mean | standard deviation

0.5 24938.530967380324 90.21051411070025
0.6 24928.775751666533 70.56884503606447
0.7 24920.655350641395 115.28814582644567
0.7999999999999999 24909.47698108484 70.88126053361796
0.8999999999999999 24893.00865113914 71.89133476350455
0.9999999999999999 24872.015850846325 71.72120166334894
1.0999999999999999 24854.0387130299 74.1894155177944
1.1999999999999997 24834.559929354476 72.50457510418609
1.2999999999999996 24808.46369933153 76.01464507899959
1.3999999999999995 24791.660712489254 76.11256173701601
1.4999999999999993 24769.39342930582 76.57900254868437
1.5999999999999992 24745.109834730247 74.41859457121834
1.699999999999999 24716.689109600877 71.5896171829785
1.799999999999999 24689.200771613887 74.73994255874229
1.8999999999999988 24661.626041251933 74.88939726628513
1.9999999999999987 24628.39092295242 74.20939959595165
2.0999999999999988 24600.520343574488 76.5630592844331
2.199999999999999 24573.868013426887 75.73561576216548
2.299999999999999 24538.260194830124 76.49538302178206
2.399999999999999 24504.982937321252 78.65564374409618
2.499999999999999 24478.118618248238 76.72736844141957
2.599999999999999 24442.909166156693 80.09778306712842
2.6999999999999993 24412.174962873196 80.92524828167528
2.7999999999999994 24370.807373426964 76.12211935413741
2.8999999999999995 24334.220938316645 81.07290897716969
2.9999999999999996 24307.892270630822 79.44904031110072
3.0999999999999996 24270.754524888907 82.29754176824953
3.1999999999999997 24230.968270571695 83.5477569453711
3.3 24191.662096058044 85.53892403068969
3.4 24153.84861920511 81.26551352496656
3.5 24117.02062124475 84.06438822389677
3.6 24078.30691403902 84.56857341438354
3.7 24037.7672524305 85.44187593771959
3.8000000000000003 23996.39937294815 86.25655923119679
3.9000000000000004 23963.21345287152 85.52611570155895
4.0 23922.519187050373 85.10895435071006
4.1 23877.60399565618 90.24754342243263
4.199999999999999 23835.105630067366 86.72057845910213
4.299999999999999 23797.808352870892 91.61367521841316
4.399999999999999 23753.47111557572 92.32542343301792
4.499999999999998 23711.67278590287 93.68476210721498
4.599999999999998 23669.852736817054 91.96915318710371
4.6999999999999975 23626.778202877907 92.78254743841005
4.799999999999997 23577.17771484598 90.85929932613374
4.899999999999997 23540.890415376693 96.06111517316793
4.9999999999999964 23498.65852633429 90.93389106628243
5.099999999999996 23447.19009139198 93.89659507227663
5.199999999999996 23408.44564460865 94.37059709592631
5.299999999999995 23365.1052178088 95.35029300383955
5.399999999999995 23323.871627827113 99.63637146853942
5.499999999999995 23276.636706231544 95.70827291802883
5.599999999999994 23230.40642847012 102.04021811635819
5.699999999999994 23188.71468587934 101.06628829816424
5.799999999999994 23133.647661611638 100.03729941555964
5.899999999999993 23091.947523931485 101.98161605898532
5.999999999999993 23049.279452662522 101.34241605061595
6.0999999999999925 23003.83047464691 104.53024083446283
6.199999999999992 22953.15884453476 105.11769173404511
6.299999999999992 22914.504837623732 105.17613549364115
6.3999999999999915 22865.93096844386 107.23698448275745
6.499999999999991 22811.979420574004 111.15276697853942
6.599999999999991 22770.548065335093 104.02274822809835
6.69999999999999 22726.19885545294 108.49667638623707
6.79999999999999 22682.139184047453 110.31411925392194
6.89999999999999 22629.271090464554 111.5441460581095
6.999999999999989 22586.36242094348 113.13012158690596
7.099999999999989 22531.183702964234 113.40850815617765
7.199999999999989 22489.956380335243 115.38880773341249
7.299999999999988 22446.524751545567 112.72968818738394
7.399999999999988 22402.585761957806 112.44017127567436
7.499999999999988 22345.061643858025 116.00552407039545
7.599999999999987 22303.083640287132 114.72363825652195
7.699999999999987 22248.854894435626 116.5975699274552
7.7999999999999865 22212.5248531292 117.62277976557445
7.899999999999986 22160.711337575136 120.53668119505612
7.999999999999986 22117.669372636636 118.76019965038695
