# Rounds: 5000, repetitions: 1000
# Good arm ~ N(5.0,2.0), 19 bad arm(s) ~ N(3.0,2.0)
# Observation noise range from 0.1 to 10.0 with step size 0.1

# Observation noise | mean | standard deviation

0.1 23454.197172358807 3468.5263610537427
0.2 23662.749758588725 3220.9305755236564
0.30000000000000004 23939.438225227947 2841.892345495963
0.4000000000000001 24251.32191441047 2300.9772609115007
0.5000000000000001 24321.64368834223 2175.4722963926183
0.6000000000000001 24492.731198466732 1797.2396795673994
0.7000000000000001 24581.31951822595 1563.3202539146591
0.8 24692.355839319822 1143.79283292608
0.9 24727.255199533884 920.2528595504428
1.0 24748.747431699117 753.323386671413
1.1 24764.103822156616 642.8718509927817
1.2000000000000002 24773.545347034007 414.1442102578607
1.3000000000000003 24760.83173192795 402.09202753212236
1.4000000000000004 24746.795275168595 266.72995665914885
1.5000000000000004 24734.13909298289 165.0732792693813
1.6000000000000005 24719.426611018636 189.44941745717034
1.7000000000000006 24694.80905402572 163.18441047938643
1.8000000000000007 24678.134693151966 170.6244140076563
1.9000000000000008 24642.30770043284 165.4731359425607
2.000000000000001 24618.419432630446 156.15269097381614
2.100000000000001 24586.009082519344 157.61003563161793
2.200000000000001 24555.871003734588 161.6316292412559
2.300000000000001 24531.75460043931 154.95422733653712
2.4000000000000012 24501.412686405285 164.80072099281745
2.5000000000000013 24468.459888786998 158.91497736612854
2.6000000000000014 24436.077956142482 159.9136227639377
2.7000000000000015 24405.834490622394 157.42840642556482
2.8000000000000016 24353.901113412157 162.91647281435675
2.9000000000000017 24329.211186444365 161.3726760675735
3.0000000000000018 24301.118516475093 159.50897254568702
3.100000000000002 24249.324199006263 163.30543646976747
3.200000000000002 24220.154403749573 163.7659073225465
3.300000000000002 24179.975379487318 168.40991267869018
3.400000000000002 24143.941788260257 165.5142688236284
3.500000000000002 24107.583502381294 167.24280268496676
3.6000000000000023 24076.682187803814 166.53111233209677
3.7000000000000024 24021.254738444182 166.01875232308944
3.8000000000000025 23978.3370490678 172.64942576233608
3.9000000000000026 23950.28884596128 172.3266867729349
4.000000000000003 23913.262476889104 169.98598952281026
4.100000000000003 23862.378563714392 181.4916515421201
4.200000000000004 23837.54629558003 175.95137324893932
4.300000000000004 23782.788519144775 177.78814933658248
4.400000000000005 23745.589489923597 177.68216106898876
4.500000000000005 23699.66926679186 179.0578596937599
4.600000000000006 23665.054554395025 184.65300228823796
4.700000000000006 23601.463297170892 183.3969422520689
4.800000000000007 23572.344546409866 178.75824745165104
4.9000000000000075 23539.25120922278 180.00236170074805
5.000000000000008 23485.419335584953 185.5180261048827
5.1000000000000085 23437.042435769956 186.01790577278956
5.200000000000009 23388.313235394013 197.80111567746405
5.30000000000001 23346.633534454293 196.92301740339462
5.40000000000001 23308.644871116147 192.50048050554665
5.500000000000011 23252.833242129524 193.40626990000544
5.600000000000011 23221.6053462258 199.98364914451395
5.700000000000012 23190.8661601808 200.92598409622897
5.800000000000012 23136.875685488496 192.98224802878784
5.900000000000013 23072.751926244935 199.91544521889276
6.000000000000013 23030.917875150295 200.6321674084396
6.100000000000014 22993.140847224997 190.23881827944712
6.200000000000014 22934.46802748844 212.14268605946708
6.300000000000015 22911.64961108178 204.38088437863954
6.4000000000000155 22845.85032766416 221.013234887155
6.500000000000016 22796.530203218255 217.0470106815357
6.6000000000000165 22746.751773669574 212.47227063916316
6.700000000000017 22708.528792963894 217.16144716925862
6.800000000000018 22657.223496304883 213.4442581675053
6.900000000000018 22615.81526671726 205.606516847904
7.000000000000019 22559.071651649414 210.61370550156542
7.100000000000019 22517.833091221677 224.321435831343
7.20000000000002 22465.185102654923 220.59627499049535
7.30000000000002 22420.01090650043 220.86375931126975
7.400000000000021 22376.133013567855 223.09951891971897
7.500000000000021 22337.32404154338 226.0771918893809
7.600000000000022 22278.97895945293 226.0422863145248
7.700000000000022 22233.004530373713 229.39988827836112
7.800000000000023 22192.384759086483 232.2776525836758
7.9000000000000234 22141.730475272132 231.37481703804806
8.000000000000025 22078.503103315532 237.87072319163067
8.100000000000026 22056.466342646003 230.98862402032654
8.200000000000028 21995.85366732297 237.7873556399453
8.30000000000003 21949.188102932207 238.53803135264945
8.40000000000003 21906.46938650306 245.72169965046464
8.500000000000032 21861.57516952519 241.2681372669123
8.600000000000033 21814.322401130732 247.2066651451629
8.700000000000035 21746.84130928784 243.38091566267192
8.800000000000036 21715.853706431426 250.27464065799055
8.900000000000038 21679.73827692377 251.59592215849995
9.000000000000039 21635.19948930027 248.38386608409505
9.10000000000004 21565.482618432845 253.72964513744975
9.200000000000042 21518.838982354864 263.2855070202938
9.300000000000043 21483.509540713058 258.69686135091115
9.400000000000045 21432.152960900257 242.8375691141506
9.500000000000046 21384.34314041413 266.7385661244351
9.600000000000048 21337.308445333714 264.09790262751784
9.700000000000049 21278.66789394563 263.3650512650367
9.80000000000005 21256.56592866708 253.2118013567042
9.900000000000052 21213.348132685653 263.7348784709136
10.000000000000053 21160.06984852914 270.1521533547373
