# Rounds: 500, repetitions: 1000
# Good arm ~ N(5.0,1.0), 19 bad arm(s) ~ N(0.5,1.0)
# Observation noise range from 0.5 to 8.0 with step size 0.1

# Observation noise | mean | standard deviation

0.5 2418.458343328944 22.744164562708953
0.6 2417.599938952067 22.963879266473246
0.7 2417.3480241005136 21.626563737257523
0.7999999999999999 2416.4002808466144 23.384250279578172
0.8999999999999999 2415.527942405189 23.334334046374618
0.9999999999999999 2413.216832250457 22.933276495484993
1.0999999999999999 2411.1559208262693 23.137096279110743
1.1999999999999997 2407.5191349404327 24.66801181927797
1.2999999999999996 2399.161766845211 25.78851228324032
1.3999999999999995 2391.5940071675054 24.687352475529536
1.4999999999999993 2384.2500636617824 25.087551746511316
1.5999999999999992 2374.553363752152 26.8420965387491
1.699999999999999 2362.1384655278316 26.15155453852057
1.799999999999999 2353.3605531374137 27.252302292005222
1.8999999999999988 2341.4791054318857 27.58467016525832
1.9999999999999987 2328.724437831232 28.621896402610588
2.0999999999999988 2318.4076056025465 27.708136781066035
2.199999999999999 2307.3376041175757 27.699038671722477
2.299999999999999 2293.8250716091093 29.335874628808945
2.399999999999999 2280.9733395804515 30.35337233782058
2.499999999999999 2268.8996494892035 31.418555846951275
2.599999999999999 2257.3603628259434 30.095927625734223
2.6999999999999993 2241.4004880862535 31.619340748371446
2.7999999999999994 2226.3333105034085 31.474665413881105
2.8999999999999995 2213.3592852081033 32.38188785843523
2.9999999999999996 2199.523591566153 33.205765260669665
3.0999999999999996 2185.17483959847 34.50835117559338
3.1999999999999997 2170.6926954592473 35.36280040282182
3.3 2154.1144553575605 35.44191657494139
3.4 2138.7928724891 35.47486287755523
3.5 2123.2898359718365 35.772067604958494
3.6 2109.1332130516644 36.91367678763647
3.7 2093.660905117917 38.40590618911624
3.8000000000000003 2078.426357746624 39.238605282390736
3.9000000000000004 2057.8756133434276 38.89121959881558
4.0 2042.9039991055056 40.48991644922833
4.1 2027.824962143169 41.26617438813989
4.199999999999999 2011.3027962296408 41.18708303669939
4.299999999999999 1992.995820586192 42.51019178852026
4.399999999999999 1976.4529085051022 43.37402620468414
4.499999999999998 1957.694001522736 43.83669817522557
4.599999999999998 1938.3728421397363 44.71821517362479
4.6999999999999975 1921.3279398207783 44.71442633282695
4.799999999999997 1902.0607185629765 45.735931768449824
4.899999999999997 1884.5716464133388 45.61431263651644
4.9999999999999964 1867.0704772511647 49.842682524431304
5.099999999999996 1847.6642862507924 47.652268040179514
5.199999999999996 1829.2670852361807 51.70521219875077
5.299999999999995 1811.1699178649476 49.73093029770922
5.399999999999995 1790.544982998654 51.9953245510896
5.499999999999995 1774.3358976266825 52.69581935641596
5.599999999999994 1752.3678097470283 53.522382602949904
5.699999999999994 1738.0927120240742 51.71335324729581
5.799999999999994 1716.213941969818 55.10429519960264
5.899999999999993 1697.2633981183449 54.708485677902274
5.999999999999993 1678.0756370269983 58.57160356604987
6.0999999999999925 1655.8911962507977 56.58783849541526
6.199999999999992 1636.0910419352324 58.44473788158061
6.299999999999992 1619.9027700170664 61.98131889760765
6.3999999999999915 1594.3938987343433 62.29071143551064
6.499999999999991 1577.4202357796232 63.539132242783054
6.599999999999991 1556.4531879282554 61.597154584518506
6.69999999999999 1541.3913604158497 62.43295661047722
6.79999999999999 1520.1169286751815 65.66589687645282
6.89999999999999 1498.8702133529648 64.96782520451264
6.999999999999989 1479.7340638339347 64.74261873186157
7.099999999999989 1458.322256623554 64.10734008372903
7.199999999999989 1438.765046747249 67.72767226884383
7.299999999999988 1422.2261204413444 69.27759224997266
7.399999999999988 1404.8468991833743 68.26970583544414
7.499999999999988 1381.693180981168 67.9441929710511
7.599999999999987 1362.9295138185103 72.1433621743257
7.699999999999987 1341.6048047023169 74.29361774074715
7.7999999999999865 1326.0529408890197 70.53764573907259
7.899999999999986 1307.1286994519917 74.34965073949105
7.999999999999986 1282.984378146479 73.48646752475285
