# Rounds: 500, repetitions: 1000
# Good arm ~ N(5.0,1.0), 19 bad arm(s) ~ N(4.5,1.0)
# Observation noise range from 0.5 to 8.0 with step size 0.1

# Observation noise | mean | standard deviation

0.5 2392.5876243078997 68.43949787975403
0.6 2380.86763583058 64.23097915977495
0.7 2373.863459663248 58.16917863753271
0.7999999999999999 2360.6196926159932 53.09498211347787
0.8999999999999999 2352.967898153776 48.31018140824456
0.9999999999999999 2342.0965278597564 46.33109238918631
1.0999999999999999 2333.4830346038652 42.009480689058734
1.1999999999999997 2327.388673036679 37.985236922834744
1.2999999999999996 2319.6086588172916 37.50190786911186
1.3999999999999995 2312.877716363581 35.68280070662391
1.4999999999999993 2308.9928619519583 31.727105479730213
1.5999999999999992 2306.8496548451894 31.709065466873987
1.699999999999999 2301.993983618102 30.668506339867545
1.799999999999999 2298.040016675503 29.398105666143145
1.8999999999999988 2296.168141307094 28.186458103315925
1.9999999999999987 2294.0242842870916 29.042573671398845
2.0999999999999988 2293.0301058806804 26.942092463437064
2.199999999999999 2290.812464562011 26.284636509900896
2.299999999999999 2289.6362316639306 26.037620151855364
2.399999999999999 2288.4877218448237 26.360473288037593
2.499999999999999 2284.8323315927664 27.216052809955883
2.599999999999999 2285.2380800716255 25.31616147010226
2.6999999999999993 2283.6419724897155 26.092243247377578
2.7999999999999994 2284.428037855439 24.790820516474263
2.8999999999999995 2283.8522206014923 25.552028306085703
2.9999999999999996 2282.8195358553758 24.388556524431586
3.0999999999999996 2281.291166750871 24.32641932365751
3.1999999999999997 2280.8334212827817 24.167262991012894
3.3 2280.665945615953 24.427101236585568
3.4 2281.799481560103 23.812331204559964
3.5 2278.646574258911 24.400280152839244
3.6 2279.934084803033 23.882290474787567
3.7 2277.5720691880356 25.676102296665974
3.8000000000000003 2278.1239488059496 24.066287719814976
3.9000000000000004 2278.168774675046 23.650796986270628
4.0 2277.645969911112 23.703528202081177
4.1 2276.5955345517505 23.647229308389022
4.199999999999999 2275.718432919334 23.892110521994347
4.299999999999999 2277.3177257752004 22.837258643432012
4.399999999999999 2276.9648943549696 23.882700362821385
4.499999999999998 2276.577967074856 23.96918091211043
4.599999999999998 2276.3472788827394 23.298482886553725
4.6999999999999975 2276.384316300797 23.268722316132603
4.799999999999997 2275.567652121488 23.843269921492073
4.899999999999997 2274.829053218729 23.559159212103356
4.9999999999999964 2274.7312335467896 23.672212444490807
5.099999999999996 2273.7129723969415 22.525096560887867
5.199999999999996 2275.356361910563 24.757352191748822
5.299999999999995 2274.741998967538 22.7462160732098
5.399999999999995 2274.8486281585356 23.336027987279465
5.499999999999995 2273.7425217996606 23.69110220993836
5.599999999999994 2274.430999972706 23.1688435259408
5.699999999999994 2273.2771920203204 22.48963045066702
5.799999999999994 2272.342298701378 23.079842392462243
5.899999999999993 2272.8394544380567 22.5567674975867
5.999999999999993 2272.919644238797 21.985024924370105
6.0999999999999925 2273.1192393605843 23.2837112795611
6.199999999999992 2272.472923610271 22.44636963478486
6.299999999999992 2271.981489249583 23.292447057136147
6.3999999999999915 2271.9603710558717 23.98580216439074
6.499999999999991 2273.6540098396817 22.62310878726484
6.599999999999991 2272.4451887618666 22.50920448992289
6.69999999999999 2273.3901648797496 23.345626208318507
6.79999999999999 2273.041511582606 22.399418399741062
6.89999999999999 2272.152741752317 24.051453129022317
6.999999999999989 2270.1251233429157 22.04237349432705
7.099999999999989 2271.7399025674813 22.8371329420137
7.199999999999989 2271.0329467590127 23.174989683999357
7.299999999999988 2271.7467337826515 22.790168119639176
7.399999999999988 2272.185530937128 23.116932454809994
7.499999999999988 2270.987086085937 24.126212970489988
7.599999999999987 2271.115831792736 23.339140730794078
7.699999999999987 2271.515953236016 22.63670037670757
7.7999999999999865 2269.947215861057 23.465717623060375
7.899999999999986 2270.4137796247323 22.559838859353892
7.999999999999986 2270.852128410593 22.939428172196436
