# Rounds: 500, repetitions: 1000
# Good arm ~ N(5.0,0.0), 19 bad arm(s) ~ N(0.5,0.0)
# Observation noise range from 0.5 to 8.0 with step size 0.1

# Observation noise | mean | standard deviation

0.5 2419.176000000002 1.5778192271339275
0.6 2419.0589999999984 2.035475905571502
0.7 2418.897 2.3825548404113404
0.7999999999999999 2418.6674999999996 3.4722111110933396
0.8999999999999999 2418.4604999999974 3.2517323865154557
0.9999999999999999 2418.1589999999997 3.922895373076925
1.0999999999999999 2417.371500000003 4.741858599006616
1.1999999999999997 2415.7605000000017 5.569776670761776
1.2999999999999996 2411.8859999999986 7.676485682422078
1.3999999999999995 2404.181999999996 9.761463115853175
1.4999999999999993 2394.0434999999975 11.110031077388616
1.5999999999999992 2381.5020000000027 11.584761659296309
1.699999999999999 2369.189999999997 10.676698548329044
1.799999999999999 2354.9474999999966 10.085420638697222
1.8999999999999988 2342.7254999999977 9.910353922280724
1.9999999999999987 2332.1459999999965 9.635508654296661
2.0999999999999988 2321.6609999999996 9.797375544887892
2.199999999999999 2310.874499999998 10.674874833116373
2.299999999999999 2298.625499999999 11.434016638368469
2.399999999999999 2286.4170000000026 11.91738793256037
2.499999999999999 2273.2500000000005 12.68484944354507
2.599999999999999 2259.6644999999985 13.279459092289239
2.6999999999999993 2245.849499999999 13.977355480069011
2.7999999999999994 2231.5214999999994 13.470290883514318
2.8999999999999995 2218.215 14.455733922677291
2.9999999999999996 2203.383000000002 15.23952276333005
3.0999999999999996 2188.4745000000016 15.435619783737549
3.1999999999999997 2173.822499999998 16.665007237208584
3.3 2159.156999999995 16.689139533792012
3.4 2143.7850000000003 16.900603699436346
3.5 2126.833499999999 18.301324165650282
3.6 2111.9430000000025 18.25732951669221
3.7 2095.473000000002 18.82779213707115
3.8000000000000003 2080.2855 19.127862265942415
3.9000000000000004 2063.599499999996 19.48444233852337
4.0 2046.323999999998 20.36233406681677
4.1 2031.3480000000002 20.48225863812191
4.199999999999999 2012.4254999999991 22.968756246551976
4.299999999999999 1996.2255000000007 22.804373247015366
4.399999999999999 1976.9385000000013 22.96880566733463
4.499999999999998 1961.9489999999987 24.3431199004254
4.599999999999998 1944.5835000000018 23.65230875537223
4.6999999999999975 1925.6745000000012 24.947869567278627
4.799999999999997 1907.5125000000005 25.407373504130216
4.899999999999997 1889.0849999999982 26.880780333750568
4.9999999999999964 1872.574500000002 27.29808390959218
5.099999999999996 1850.2229999999997 28.57563363843117
5.199999999999996 1833.3480000000004 28.818794543126184
5.299999999999995 1816.3155000000013 28.60872539836257
5.399999999999995 1795.3589999999986 29.663243703732544
5.499999999999995 1778.1599999999996 32.095592018640644
5.599999999999994 1756.5960000000002 31.458033821138457
5.699999999999994 1739.1719999999991 33.28018158734245
5.799999999999994 1718.6925000000003 33.189497382251616
5.899999999999993 1701.2055000000005 34.41951805259591
5.999999999999993 1681.5224999999998 35.051402890534845
6.0999999999999925 1661.2005000000001 35.823859348884355
6.199999999999992 1640.7300000000014 36.46890567430123
6.299999999999992 1621.5195000000003 38.714327695556314
6.3999999999999915 1601.6475000000014 38.50832877618993
6.499999999999991 1583.1120000000014 39.4561432890145
6.599999999999991 1561.5750000000003 38.60021180448823
6.69999999999999 1542.8415000000014 41.53507903616579
6.79999999999999 1526.2139999999995 42.06267909885169
6.89999999999999 1500.6675000000018 43.25461426721322
6.999999999999989 1486.3980000000008 44.36197787611687
7.099999999999989 1465.0544999999981 43.77040813584424
7.199999999999989 1444.1115000000027 45.034669302540564
7.299999999999988 1425.963000000001 46.58170763815432
7.399999999999988 1402.9229999999989 45.154501436733916
7.499999999999988 1384.7609999999986 44.009512792306786
7.599999999999987 1366.0724999999977 48.088173870674446
7.699999999999987 1346.4300000000003 48.98242928212504
7.7999999999999865 1326.7560000000012 49.73139527175622
7.899999999999986 1307.6760000000013 48.77931883437837
7.999999999999986 1292.9609999999989 51.2333762096335
