# Rounds: 500, repetitions: 1000
# Good arm ~ N(5.0,0.0), 19 bad arm(s) ~ N(0.0,0.0)
# Observation noise range from 0.5 to 8.0 with step size 0.1

# Observation noise | mean | standard deviation

0.5 2409.825000000001 1.2433506830017558
0.6 2409.7400000000016 1.4780340268696621
0.7 2409.624999999998 1.8941919023591467
0.7999999999999999 2409.4999999999964 2.191986497404764
0.8999999999999999 2409.349999999999 2.5853789246809256
0.9999999999999999 2409.130000000001 3.46483839523654
1.0999999999999999 2408.6699999999955 4.593713334787289
1.1999999999999997 2408.0249999999955 4.582070533107333
1.2999999999999996 2406.7100000000014 5.338951620346862
1.3999999999999995 2403.3750000000014 6.897967596108082
1.4999999999999993 2396.885000000001 8.754908533127196
1.5999999999999992 2386.9649999999965 11.037916950702718
1.699999999999999 2375.599999999998 12.142381868374786
1.799999999999999 2361.9350000000036 12.571348925784099
1.8999999999999988 2347.164999999998 12.063718676606634
1.9999999999999987 2334.2649999999994 10.726128137628562
2.0999999999999988 2321.999999999999 10.514778198353051
2.199999999999999 2310.749999999999 10.535582494503995
2.299999999999999 2300.2900000000022 10.956091270883839
2.399999999999999 2289.2699999999973 11.84302990612443
2.499999999999999 2277.120000000005 12.714844366616033
2.599999999999999 2264.2399999999984 13.384750709353957
2.6999999999999993 2250.435000000003 14.501588570603984
2.7999999999999994 2236.7349999999997 14.447266125412737
2.8999999999999995 2222.695000000003 14.269393490635489
2.9999999999999996 2208.2700000000013 15.727506301205324
3.0999999999999996 2194.5349999999994 15.703674104501134
3.1999999999999997 2179.1799999999976 16.004178633523615
3.3 2164.070000000002 16.587955276653613
3.4 2149.770000000003 17.31030752894777
3.5 2133.0749999999957 18.435271471671747
3.6 2117.9849999999983 18.367148040104855
3.7 2101.5699999999997 19.60023645952443
3.8000000000000003 2085.795000000002 19.485190469883737
3.9000000000000004 2070.4349999999977 20.606076418993048
4.0 2052.064999999998 20.72414691284698
4.1 2035.9800000000002 21.61959775312685
4.199999999999999 2017.8499999999976 22.051389157233675
4.299999999999999 2001.1799999999998 22.34965563732709
4.399999999999999 1985.0700000000002 23.33537314121288
4.499999999999998 1966.3850000000011 23.61809877169606
4.599999999999998 1947.8850000000014 23.363382088700725
4.6999999999999975 1930.24 25.91455120128387
4.799999999999997 1910.560000000001 26.04735811680072
4.899999999999997 1892.4649999999983 26.02741249531351
4.9999999999999964 1873.5450000000005 27.904957653823118
5.099999999999996 1855.1600000000012 27.79742968508237
5.199999999999996 1836.4500000000005 29.756225112284255
5.299999999999995 1816.0949999999993 30.047942589366333
5.399999999999995 1799.3249999999998 29.312601447220626
5.499999999999995 1779.0000000000005 31.44739955765721
5.599999999999994 1759.3149999999987 32.317955152286906
5.699999999999994 1738.8050000000012 32.92918623814298
5.799999999999994 1719.6500000000005 34.10925007884144
5.899999999999993 1699.574999999999 35.32693543696325
5.999999999999993 1680.3750000000011 33.57024480602333
6.0999999999999925 1659.8999999999999 37.71090176742157
6.199999999999992 1637.3900000000003 37.44649703430401
6.299999999999992 1619.3750000000016 36.34426062365669
6.3999999999999915 1596.7500000000007 37.491240218124204
6.499999999999991 1577.660000000002 39.62568099849641
6.599999999999991 1557.39 40.46078317303035
6.69999999999999 1533.5449999999996 42.14420611553987
6.79999999999999 1516.84 42.65951516642261
6.89999999999999 1492.8649999999993 42.81296211107943
6.999999999999989 1474.4800000000005 43.58301365301715
7.099999999999989 1450.5250000000024 44.986366247432635
7.199999999999989 1433.1949999999995 44.63360991600538
7.299999999999988 1411.8450000000003 45.61800058065871
7.399999999999988 1390.324999999999 45.52517893338716
7.499999999999988 1370.5250000000008 46.91001945133819
7.599999999999987 1347.3849999999989 47.05316966768318
7.699999999999987 1326.6400000000012 49.65154253067748
7.7999999999999865 1308.3550000000002 49.720630689042096
7.899999999999986 1288.9599999999987 50.79072846591298
7.999999999999986 1265.5049999999983 53.512461712750294
