# Rounds: 500, repetitions: 1000
# Good arm ~ N(5.0,0.0), 19 bad arm(s) ~ N(4.5,0.0)
# Observation noise range from 0.5 to 8.0 with step size 0.1

# Observation noise | mean | standard deviation

0.5 2440.0360000000005 2.3111783889491377
0.6 2422.3379999999956 2.57670242662892
0.7 2404.6414999999997 2.914656578908209
0.7999999999999999 2387.626999999998 3.1881083788094466
0.8999999999999999 2372.094000000003 3.472350964580258
0.9999999999999999 2357.9275 3.7727612537076576
1.0999999999999999 2345.815000000001 3.754046865433068
1.1999999999999997 2335.424000000001 4.0409842307974495
1.2999999999999996 2326.6010000000006 3.8999369877613246
1.3999999999999995 2319.5215000000007 4.004787894018371
1.4999999999999993 2313.5235 3.796723964533476
1.5999999999999992 2308.1340000000014 3.969924974644273
1.699999999999999 2304.1174999999985 3.843919805285916
1.799999999999999 2300.7225000000003 3.6771272775109396
1.8999999999999988 2298.0789999999965 3.7165941494965558
1.9999999999999987 2295.5805 3.5853346251604545
2.0999999999999988 2293.5775000000012 3.6620560351262177
2.199999999999999 2291.502499999996 3.460739873274286
2.299999999999999 2289.889499999996 3.451369540008944
2.399999999999999 2288.535499999996 3.444467172743006
2.499999999999999 2287.414000000001 3.5515796088103793
2.599999999999999 2286.2580000000007 3.622023613265803
2.6999999999999993 2285.4075000000007 3.514690142359201
2.7999999999999994 2284.4769999999994 3.6126198280502844
2.8999999999999995 2283.8065000000006 3.4948564737012586
2.9999999999999996 2282.871500000002 3.5575122829926626
3.0999999999999996 2282.319 3.6080822132065316
3.1999999999999997 2281.8469999999957 3.609448589344252
3.3 2281.0544999999997 3.7514468013158644
3.4 2280.661000000003 3.4552884131455834
3.5 2280.1124999999984 3.7677964435515965
3.6 2279.571499999998 3.733976476938509
3.7 2279.284499999999 3.7287012434576927
3.8000000000000003 2278.8944999999985 3.705516239419377
3.9000000000000004 2278.1019999999976 3.871056842915257
4.0 2277.933 3.914439146778755
4.1 2277.7755000000034 3.8427355316709293
4.199999999999999 2277.4235000000003 3.829368330653491
4.299999999999999 2277.095 4.07487172553685
4.399999999999999 2276.6780000000003 3.981038139061815
4.499999999999998 2276.3325000000013 4.032983846819715
4.599999999999998 2276.0020000000013 4.010683430736175
4.6999999999999975 2275.8685000000014 3.8652163778562008
4.799999999999997 2275.8650000000016 3.7773063210498523
4.899999999999997 2275.3189999999995 4.07711440382313
4.9999999999999964 2275.1550000000016 4.083705627448132
5.099999999999996 2274.8730000000014 3.9532897059916436
5.199999999999996 2274.7415000000005 4.102896722013783
5.299999999999995 2274.452000000002 4.190077893399222
5.399999999999995 2274.3 3.95355923575586
5.499999999999995 2273.889999999999 4.0861469132419295
5.599999999999994 2273.8055000000018 4.160376002055387
5.699999999999994 2273.680000000002 4.070708865869725
5.799999999999994 2273.380500000002 4.2296997659538835
5.899999999999993 2273.237 4.2033318925584515
5.999999999999993 2273.2975000000015 4.0044074504262115
6.0999999999999925 2272.9234999999976 4.032016233214474
6.199999999999992 2272.820500000002 4.218569197734725
6.299999999999992 2272.702999999999 4.117431753441011
6.3999999999999915 2272.2889999999998 3.9869003466821673
6.499999999999991 2272.2304999999997 4.2068774129474775
6.599999999999991 2272.2099999999973 4.062376509249617
6.69999999999999 2271.8759999999966 3.9847210695357633
6.79999999999999 2271.8950000000027 3.971491879350612
6.89999999999999 2271.8084999999974 4.121718854594041
6.999999999999989 2271.8570000000013 4.15413141436422
7.099999999999989 2271.6609999999946 3.9810083430492385
7.199999999999989 2271.502499999999 4.027588014583326
7.299999999999988 2271.2625000000066 4.119443356032899
7.399999999999988 2271.037 3.926582362443067
7.499999999999988 2271.1900000000032 4.016968513199499
7.599999999999987 2270.878500000003 4.13746375891757
7.699999999999987 2270.8315000000007 4.002483932213529
7.7999999999999865 2270.8245 4.003183136608311
7.899999999999986 2270.4409999999993 3.8779579107511593
7.999999999999986 2270.4950000000013 3.9305755843673147
