# Rounds: 500, repetitions: 1000
# Good arm ~ N(5.0,2.0), 19 bad arm(s) ~ N(0.5,2.0)
# Observation noise range from 0.5 to 8.0 with step size 0.1

# Observation noise | mean | standard deviation

0.5 2400.183012434439 90.27375560143366
0.6 2392.1670535147236 154.61313106878552
0.7 2398.4245215531637 88.71660158265502
0.7999999999999999 2396.281052968426 58.95911584716001
0.8999999999999999 2391.2383155173325 87.55129686429211
0.9999999999999999 2389.754632045515 55.81538247828908
1.0999999999999999 2385.117706887297 98.6759318483809
1.1999999999999997 2381.4610866420126 54.08927215189881
1.2999999999999996 2375.255702341705 51.86561845503049
1.3999999999999995 2368.5523470112475 53.437925608304404
1.4999999999999993 2362.868408557784 54.11127002722772
1.5999999999999992 2356.0859338051555 50.97510683086028
1.699999999999999 2347.3341672750807 52.191629066641795
1.799999999999999 2338.1691496011504 52.522101748431425
1.8999999999999988 2326.680070846164 54.16001563301733
1.9999999999999987 2315.7549914029955 55.66289306200056
2.0999999999999988 2306.6382037656044 56.04570588145279
2.199999999999999 2293.605471513331 54.55232890391084
2.299999999999999 2282.427163240696 59.244302780072076
2.399999999999999 2267.2443515089553 59.394485315129614
2.499999999999999 2257.098283978183 58.70817806682569
2.599999999999999 2244.3289480332965 60.06162198341505
2.6999999999999993 2229.0948121657893 60.20974581665694
2.7999999999999994 2212.5231230965323 62.418992833438665
2.8999999999999995 2200.4520322895423 60.61213883851845
2.9999999999999996 2187.7814191485354 60.58458201001689
3.0999999999999996 2170.6446357864133 63.58691040919758
3.1999999999999997 2153.614823586906 66.18302435517008
3.3 2142.381093513201 61.3171212755679
3.4 2131.7326065380694 66.50469206874307
3.5 2112.3364004647074 65.71968857416826
3.6 2097.971956948656 67.39645199711326
3.7 2080.638438239441 69.97539148880887
3.8000000000000003 2063.2224795361317 70.98850768608783
3.9000000000000004 2045.8672894632261 70.048707622222
4.0 2028.1741123516476 72.75608623202227
4.1 2012.89147728555 71.85579327357263
4.199999999999999 1995.8824987128855 73.2589325486752
4.299999999999999 1980.5665596244573 78.84311191649115
4.399999999999999 1961.525576084555 75.66551129891289
4.499999999999998 1943.3911761085835 79.32746461056962
4.599999999999998 1921.8594484963617 83.79449968975828
4.6999999999999975 1911.1141069957825 82.87023028372364
4.799999999999997 1893.1091841091677 80.91766352658226
4.899999999999997 1870.2179210095653 87.15394769361046
4.9999999999999964 1853.3605804074716 82.7623464364077
5.099999999999996 1832.9863445199524 83.62234000632806
5.199999999999996 1816.672197049942 90.9825079191194
5.299999999999995 1794.1082014645967 93.38854446671462
5.399999999999995 1778.3357373494614 88.72518505984695
5.499999999999995 1760.7206985128855 91.63168389365984
5.599999999999994 1743.061514461477 90.82238460099876
5.699999999999994 1714.7040036258404 94.65639094807689
5.799999999999994 1711.107949281837 94.99741412416516
5.899999999999993 1682.8626131865585 93.88705435441193
5.999999999999993 1661.7331443244932 95.82392681621957
6.0999999999999925 1643.292276743758 98.14456861487712
6.199999999999992 1618.1098975870896 105.15497384579064
6.299999999999992 1603.3773416406418 102.2348960521239
6.3999999999999915 1584.6323392580364 101.92853953506639
6.499999999999991 1566.9573338171651 101.72601672637322
6.599999999999991 1544.3028303832427 104.66885815330377
6.69999999999999 1520.7002858848596 107.59168794098746
6.79999999999999 1507.3320771526076 106.76776207878967
6.89999999999999 1486.024271784479 106.89696602766129
6.999999999999989 1463.3627401363012 116.12481702764863
7.099999999999989 1443.4407722228345 107.88123964100085
7.199999999999989 1423.842902230848 114.71983966939936
7.299999999999988 1410.3215148826882 114.75748159424097
7.399999999999988 1390.5992322827176 111.4812819645941
7.499999999999988 1373.2484058450298 114.44507545057797
7.599999999999987 1347.1111524557875 116.01542197860236
7.699999999999987 1328.16157972324 119.85094716450237
7.7999999999999865 1310.8899591290399 115.28217488712436
7.899999999999986 1292.972395618525 122.0646817722505
7.999999999999986 1276.691543855746 119.01743265582081
