# Rounds: 1000, repetitions: 1000
# Good arm ~ N(5.0,1.0), 16 bad arm(s) ~ N(2.0,1.0)
# Observation noise range from 0.5 to 8.0 with step size 0.1

# Observation noise | mean | standard deviation

0.5 4948.964518348358 32.398533274440474
0.6 4948.501558055862 32.23420558886563
0.7 4941.406430710976 33.63768153592715
0.7999999999999999 4939.632618569056 33.65193513478817
0.8999999999999999 4934.211879474915 33.1778330907753
0.9999999999999999 4926.501059374439 32.540609686615504
1.0999999999999999 4921.533695360148 33.8245587899727
1.1999999999999997 4910.0899971337485 33.8103597081497
1.2999999999999996 4902.069500656838 35.08613449124998
1.3999999999999995 4889.831402582727 35.05376964265058
1.4999999999999993 4879.234430822856 34.80829558644029
1.5999999999999992 4866.508395049932 35.98849512771985
1.699999999999999 4855.678197359371 34.052281400501236
1.799999999999999 4844.77201550649 36.3927214172045
1.8999999999999988 4829.918138537226 35.975069704619656
1.9999999999999987 4815.615116718725 35.45283547139067
2.0999999999999988 4803.348065378928 37.69084484576058
2.199999999999999 4790.705805851408 37.170050356485845
2.299999999999999 4776.921831812442 37.38181200891378
2.399999999999999 4761.2850836947355 37.93763972792141
2.499999999999999 4747.755176460662 37.362955406106856
2.599999999999999 4729.50452865145 37.26262219741725
2.6999999999999993 4713.721226554447 40.52849473982101
2.7999999999999994 4700.768773256239 39.801637823485514
2.8999999999999995 4685.726181218339 40.41425241065419
2.9999999999999996 4667.464965930863 41.67716540748487
3.0999999999999996 4655.121782042305 43.13308016319777
3.1999999999999997 4636.2141341082515 41.887015053553874
3.3 4618.553417873595 41.63511684485115
3.4 4603.053867386009 44.264583761004985
3.5 4584.197728286399 43.55876867379418
3.6 4566.951981893191 43.29111259067628
3.7 4552.851190017213 45.73153244574766
3.8000000000000003 4532.009381971819 45.27882272550353
3.9000000000000004 4513.752353765636 47.00387799202097
4.0 4498.751260768534 46.803392611204586
4.1 4478.430448265722 48.870312696335496
4.199999999999999 4461.792513622243 49.04906496243251
4.299999999999999 4443.107367275338 47.72789202533437
4.399999999999999 4424.837387792317 49.278474785330864
4.499999999999998 4405.169133598352 49.60766100272672
4.599999999999998 4385.344616209527 51.20240634928525
4.6999999999999975 4365.178306056249 49.95597345715103
4.799999999999997 4347.4686254405615 51.2303127278515
4.899999999999997 4328.130754581607 53.859847122801085
4.9999999999999964 4306.1198489351145 54.66773504878846
5.099999999999996 4290.8206458899085 51.90976554198958
5.199999999999996 4268.156282984324 53.82320679406697
5.299999999999995 4250.919540996472 55.522955110502316
5.399999999999995 4229.247579804761 53.98294264848787
5.499999999999995 4209.803630426066 58.239210948269104
5.599999999999994 4191.909216109181 56.67411162365772
5.699999999999994 4172.82684373754 56.69323582209121
5.799999999999994 4150.801752691644 58.402156316185284
5.899999999999993 4130.982895319479 60.702834924865286
5.999999999999993 4111.801916342979 60.274280127942006
6.0999999999999925 4087.649589809466 62.95909754066729
6.199999999999992 4068.741930643633 63.00835401410355
6.299999999999992 4055.346974889254 62.46580504593439
6.3999999999999915 4029.4323650049714 62.76840414879815
6.499999999999991 4008.8793435609878 62.75322010401526
6.599999999999991 3987.067811053376 64.62451939811419
6.69999999999999 3969.4130544293153 65.72271355980826
6.79999999999999 3947.003003778184 67.00792647411187
6.89999999999999 3930.1676552937256 66.88650724715653
6.999999999999989 3904.6039789651695 68.11118118116357
7.099999999999989 3888.8875418715834 70.70584961825779
7.199999999999989 3869.4663161249196 70.30392721202266
7.299999999999988 3846.964829227846 69.04450989987812
7.399999999999988 3827.086902745071 71.59070488850827
7.499999999999988 3804.6059256773306 73.61436631855616
7.599999999999987 3785.4446920518944 73.2103174088282
7.699999999999987 3760.3356365134337 75.58632829979197
7.7999999999999865 3742.6508547768753 72.91069610852024
7.899999999999986 3725.2178266375518 73.46376833197144
7.999999999999986 3698.834210772544 74.34098907464042
