# Rounds: 1000, repetitions: 1000
# Good arm ~ N(5.0,0.0), 16 bad arm(s) ~ N(0.0,0.0)
# Observation noise range from 0.5 to 8.0 with step size 0.1

# Observation noise | mean | standard deviation

0.5 4924.794999999998 1.1976683219528634
0.6 4924.684999999996 1.5900639305711373
0.7 4924.684999999993 1.6057251798964158
0.7999999999999999 4924.535000000005 1.9780514876230415
0.8999999999999999 4924.415000000004 2.176582760317766
0.9999999999999999 4924.105000000004 3.4037568304096824
1.0999999999999999 4923.800000000001 3.2971003731871575
1.1999999999999997 4922.564999999997 5.179053735731754
1.2999999999999996 4920.380000000004 6.355784451662575
1.3999999999999995 4915.8150000000005 7.698704114657577
1.4999999999999993 4907.415000000001 9.355763213405222
1.5999999999999992 4894.394999999991 10.971752565308588
1.699999999999999 4879.899999999999 10.594916340030856
1.799999999999999 4865.815000000002 10.137235251217973
1.8999999999999988 4854.500000000001 8.574585909740687
1.9999999999999987 4844.579999999992 7.6178495411521086
2.0999999999999988 4835.499999999996 8.31680041657663
2.199999999999999 4825.765 9.328815669837258
2.299999999999999 4815.145000000003 10.562459019591053
2.399999999999999 4803.050000000002 11.064353569907253
2.499999999999999 4789.640000000004 11.353382724954708
2.599999999999999 4776.300000000005 11.313177625582819
2.6999999999999993 4763.200000000002 12.006421371672461
2.7999999999999994 4750.050000000007 12.32474743755013
2.8999999999999995 4736.644999999999 12.358062012172292
2.9999999999999996 4722.464999999998 13.153775001755083
3.0999999999999996 4707.889999999996 13.293781426841125
3.1999999999999997 4694.599999999994 13.855756276074633
3.3 4679.280000000005 14.031339154851867
3.4 4664.385000000006 15.024063947464247
3.5 4648.549999999995 15.077295010207356
3.6 4633.210000000002 15.725558597175272
3.7 4617.715 14.999291775072342
3.8000000000000003 4601.01 16.646531380651233
3.9000000000000004 4584.594999999997 16.875893184384946
4.0 4567.590000000007 17.80193272678019
4.1 4552.325000000001 17.825181965750378
4.199999999999999 4533.530000000001 19.003953542625005
4.299999999999999 4516.249999999996 18.990738483485753
4.399999999999999 4498.474999999998 20.019994384993623
4.499999999999998 4479.169999999999 19.677354961942935
4.599999999999998 4463.724999999992 20.03373968398629
4.6999999999999975 4445.235000000011 21.25727279419085
4.799999999999997 4427.329999999997 20.619074815477212
4.899999999999997 4406.550000000001 22.26079610083706
4.9999999999999964 4389.249999999995 22.268439177081614
5.099999999999996 4369.515000000001 23.489178710983403
5.199999999999996 4350.61 23.781157319261045
5.299999999999995 4329.799999999997 24.116210141554014
5.399999999999995 4310.574999999997 24.741797257505947
5.499999999999995 4290.205000000002 24.055386852774376
5.599999999999994 4270.0250000000015 26.167902746191356
5.699999999999994 4250.560000000003 24.918011704534234
5.799999999999994 4230.425000000002 26.44037572479764
5.899999999999993 4208.539999999991 27.486795446612675
5.999999999999993 4188.355000000003 28.468920851596227
6.0999999999999925 4166.215000000008 29.384727959217816
6.199999999999992 4145.319999999995 28.374331757817536
6.299999999999992 4124.054999999999 28.6417933678624
6.3999999999999915 4102.804999999994 29.99677952350522
6.499999999999991 4079.985000000002 30.962613882850043
6.599999999999991 4059.145000000004 29.97987271100016
6.69999999999999 4035.025 32.53741013138643
6.79999999999999 4014.0250000000033 32.34378604145614
6.89999999999999 3990.729999999999 33.37635511977123
6.999999999999989 3968.359999999994 34.005393201178684
7.099999999999989 3945.810000000003 34.56064724999142
7.199999999999989 3922.075 35.004924221025476
7.299999999999988 3896.8250000000016 34.276365680221204
7.399999999999988 3874.9350000000018 36.050942365567174
7.499999999999988 3853.2100000000014 37.9029356716934
7.599999999999987 3827.9550000000027 39.81806692261002
7.699999999999987 3804.7450000000013 38.16040082587166
7.7999999999999865 3780.6049999999996 37.57753379409094
7.899999999999986 3755.7299999999996 40.889351169210805
7.999999999999986 3733.219999999996 42.06781788138417
