# Rounds: 1000, repetitions: 1000
# Good arm ~ N(5.0,1.0), 16 bad arm(s) ~ N(1.0,1.0)
# Observation noise range from 0.5 to 8.0 with step size 0.1

# Observation noise | mean | standard deviation

0.5 4939.075319207095 32.12600066208866
0.6 4937.049046831595 31.142964921915933
0.7 4934.4818885715285 32.36196930145379
0.7999999999999999 4935.766042257907 32.65712240110947
0.8999999999999999 4929.985247695663 32.16148036125123
0.9999999999999999 4928.358276660626 32.30586375240047
1.0999999999999999 4921.5216194157965 33.32268270814215
1.1999999999999997 4915.911425291111 34.675123440106546
1.2999999999999996 4909.570306029263 32.71279305143708
1.3999999999999995 4900.229043207637 34.73387727956798
1.4999999999999993 4888.873723920955 34.442647381971504
1.5999999999999992 4881.874294393079 33.58189009888435
1.699999999999999 4870.926083952496 34.34376258968853
1.799999999999999 4859.670239702611 33.72201524972894
1.8999999999999988 4845.4952256262795 33.79791822141205
1.9999999999999987 4835.543854886816 36.11570519835453
2.0999999999999988 4823.712032805059 35.80330876929787
2.199999999999999 4814.232226187324 34.49508714225726
2.299999999999999 4800.02489856051 37.331806465753246
2.399999999999999 4785.1178192044035 36.63977432733173
2.499999999999999 4772.40269352259 37.25620777946032
2.599999999999999 4759.839893459099 38.19042705424677
2.6999999999999993 4744.672044670571 38.16318057000725
2.7999999999999994 4727.807247133436 38.29990194946873
2.8999999999999995 4717.61444455438 37.24502268032196
2.9999999999999996 4699.2659939963205 39.182653288073304
3.0999999999999996 4688.688172709226 39.14661054669659
3.1999999999999997 4672.822769544317 39.35384910746488
3.3 4656.053900578585 38.9044671413321
3.4 4638.564044383214 41.18636767602034
3.5 4622.275617166789 40.858426753199716
3.6 4605.9412911604895 42.28497998657777
3.7 4590.423877926398 42.35818413056945
3.8000000000000003 4573.7469859188495 42.56131777989047
3.9000000000000004 4558.892078354596 41.98245276750229
4.0 4538.548776028091 42.90252199784863
4.1 4521.585351275475 43.575692008840214
4.199999999999999 4504.999790761996 43.84082927904103
4.299999999999999 4487.809040857451 43.45503675280236
4.399999999999999 4470.873191213301 43.75012717487844
4.499999999999998 4450.7960186161845 47.47048826103163
4.599999999999998 4433.2747757007155 46.16475948890928
4.6999999999999975 4413.382014602296 49.13462614824741
4.799999999999997 4396.370782729702 46.31058890005801
4.899999999999997 4376.478000886269 47.53394539308425
4.9999999999999964 4355.218329090834 50.08136847924192
5.099999999999996 4339.032442932197 51.63489416950868
5.199999999999996 4317.749452504421 51.12199031439605
5.299999999999995 4298.1636065839275 53.28163505548942
5.399999999999995 4278.01024272621 52.376523770432364
5.499999999999995 4258.724473665914 51.16915215978348
5.599999999999994 4240.263733733821 53.89611319925184
5.699999999999994 4217.7608896594265 54.004547387993625
5.799999999999994 4197.836571817032 55.8056329906364
5.899999999999993 4174.715365434336 56.02970220920805
5.999999999999993 4156.234342346128 57.13355998074018
6.0999999999999925 4134.563179158454 56.48517575677791
6.199999999999992 4116.781257729689 57.30158748201988
6.299999999999992 4092.2741992070837 58.59040592641955
6.3999999999999915 4071.3344114528077 60.35973793609215
6.499999999999991 4049.5774163215547 59.92119978502216
6.599999999999991 4022.8269577961464 62.47653263978694
6.69999999999999 4007.000918543126 60.74457941039279
6.79999999999999 3986.134726996128 61.94219824633722
6.89999999999999 3962.9032125288754 60.676312167082855
6.999999999999989 3941.656160803522 63.006546601853714
7.099999999999989 3917.3210310720524 62.11865249805836
7.199999999999989 3892.697107377661 65.75022645124453
7.299999999999988 3870.7571670665307 63.75774395394183
7.399999999999988 3855.35192370896 66.32559763422965
7.499999999999988 3827.4247567626526 66.22489219897957
7.599999999999987 3805.3559419129124 69.70160070305549
7.699999999999987 3782.0978047375875 68.48216212283327
7.7999999999999865 3755.1487909997695 72.02000054874657
7.899999999999986 3735.262015313374 71.39553125958828
7.999999999999986 3714.517906403736 73.37435741027167
