# Rounds: 1000, repetitions: 1000
# Good arm ~ N(5.0,0.0), 16 bad arm(s) ~ N(4.0,0.0)
# Observation noise range from 0.5 to 8.0 with step size 0.1

# Observation noise | mean | standard deviation

0.5 4960.269999999997 3.4587661185837475
0.6 4947.2499999999945 3.157763682017912
0.7 4932.5949999999975 3.078384552236993
0.7999999999999999 4916.882000000005 3.595970940790142
0.8999999999999999 4900.354000000005 3.6843260249682257
0.9999999999999999 4882.747000000001 4.046154021087506
1.0999999999999999 4864.801000000004 4.355958375991835
1.1999999999999997 4846.310999999998 4.91206752879142
1.2999999999999996 4826.924000000005 5.062000380071891
1.3999999999999995 4807.783000000003 5.661798916154411
1.4999999999999993 4787.756999999999 5.541178182991025
1.5999999999999992 4768.029000000001 6.182101372298701
1.699999999999999 4748.371000000002 6.958144492231759
1.799999999999999 4728.026000000001 7.205084124230444
1.8999999999999988 4708.225999999995 7.481905031668187
1.9999999999999987 4688.205999999999 8.002474842422377
2.0999999999999988 4668.386999999991 8.369185998307994
2.199999999999999 4648.9929999999995 8.628290583794561
2.299999999999999 4629.5620000000035 8.97667737733377
2.399999999999999 4610.250999999997 9.14459526838789
2.499999999999999 4592.307 10.147596992624681
2.599999999999999 4573.55 10.276239638170258
2.6999999999999993 4556.447000000005 10.620074245360856
2.7999999999999994 4539.271000000004 10.724671443805539
2.8999999999999995 4522.131000000004 11.418415792885583
2.9999999999999996 4506.601 11.603898028225206
3.0999999999999996 4490.399999999999 12.34310950904805
3.1999999999999997 4474.733999999998 11.970820546000397
3.3 4460.710000000001 12.432154216323788
3.4 4445.740000000001 12.959179771125179
3.5 4432.315000000007 12.735932591647106
3.6 4419.3470000000025 13.34011055237361
3.7 4406.731000000007 13.980131726242163
3.8000000000000003 4394.772999999999 13.79049124029489
3.9000000000000004 4383.375000000005 13.989785169511656
4.0 4372.262000000007 14.173646258046935
4.1 4361.401000000008 14.567787046062264
4.199999999999999 4351.272000000001 15.44987749837238
4.299999999999999 4342.421000000006 15.533674840618103
4.399999999999999 4332.416999999993 15.397538608335942
4.499999999999998 4323.413000000003 14.837674601755738
4.599999999999998 4314.423000000003 15.926133011899417
4.6999999999999975 4307.995000000006 15.907168604532101
4.799999999999997 4299.541000000001 15.636137880173889
4.899999999999997 4292.183000000006 15.182029014759715
4.9999999999999964 4284.911 16.299839378465194
5.099999999999996 4278.693000000005 15.860021793531388
5.199999999999996 4272.1630000000005 15.649323702075273
5.299999999999995 4265.568000000004 16.24799598022396
5.399999999999995 4259.726000000011 16.708503765989906
5.499999999999995 4254.179999999993 16.518185446666063
5.599999999999994 4249.337000000003 16.64796040317214
5.699999999999994 4243.919999999998 16.405387430254187
5.799999999999994 4239.1959999999945 16.20729034293703
5.899999999999993 4234.264000000001 16.640890097083826
5.999999999999993 4229.834999999999 15.993798066018547
6.0999999999999925 4225.225999999996 16.65329565750445
6.199999999999992 4220.516000000005 16.897966897981686
6.299999999999992 4215.928000000004 16.718981438483027
6.3999999999999915 4212.454 16.66005526525772
6.499999999999991 4208.850999999997 17.038107174686306
6.599999999999991 4204.294000000004 16.080738607233002
6.69999999999999 4201.392999999999 16.91817885517751
6.79999999999999 4198.311000000002 16.901358967104805
6.89999999999999 4195.16699999999 16.943500027833416
6.999999999999989 4191.938999999993 16.747769008640077
7.099999999999989 4189.122999999999 16.90561062696853
7.199999999999989 4186.286 17.043435178469313
7.299999999999988 4183.096999999997 16.71894476676427
7.399999999999988 4180.329000000003 16.76836118817036
7.499999999999988 4177.291000000001 17.18241992719761
7.599999999999987 4174.454999999995 17.611250129707727
7.699999999999987 4172.889000000005 17.257418622073775
7.7999999999999865 4170.22699999999 17.58165480225297
7.899999999999986 4167.304999999993 16.84932861792665
7.999999999999986 4165.906999999996 17.02134181188652
