# Rounds: 50, repetitions: 1000
# Good arm ~ N(5.0,0.0), 1 bad arm(s) ~ N(4.4,0.0)
# Observation noise range from 0.5 to 4.0 with step size 0.1

# Observation noise | mean | standard deviation

0.5 250.2498000000001 4.059650320005487
0.6 249.60899999999998 4.295179573378454
0.7 249.0456 4.084169570559102
0.7999999999999999 248.4066000000003 4.120739853101241
0.8999999999999999 247.71719999999993 4.032702176809832
0.9999999999999999 247.01760000000002 4.426520566350533
1.0999999999999999 246.43860000000018 4.314260409720626
1.1999999999999997 245.83439999999976 4.292454053545784
1.2999999999999996 244.85099999999997 4.6442359896895535
1.3999999999999995 244.2336000000002 4.6928300303434725
1.4999999999999993 244.00680000000006 4.404187851423969
1.5999999999999992 242.9249999999998 4.765316699154742
1.699999999999999 242.6148000000001 4.5345455189095665
1.799999999999999 242.18160000000017 4.920466688479069
1.8999999999999988 241.70040000000023 4.795735493010293
1.9999999999999987 241.2564000000001 4.882665200426832
2.0999999999999988 240.9660000000001 4.778853569784425
2.199999999999999 240.25140000000007 4.851207298420891
2.299999999999999 240.10920000000002 4.68075900521109
2.399999999999999 239.7042000000001 4.638885816833766
2.499999999999999 239.42759999999996 4.813040993343338
2.599999999999999 239.0370000000003 4.826465141878221
2.6999999999999993 238.5336 4.626787027538446
2.7999999999999994 238.13759999999996 4.6439802748065855
2.8999999999999995 237.97200000000004 4.477676360076206
2.9999999999999996 237.76860000000008 4.642616495891911
3.0999999999999996 237.27960000000024 4.62507244647421
3.1999999999999997 237.30780000000004 4.440754379546256
3.3 236.9850000000002 4.623495616058423
3.4 236.63520000000014 4.505705532138346
3.5 236.57040000000003 4.436187958552173
3.6 236.35500000000005 4.373358121771082
3.7 236.32439999999997 4.406388646147843
3.8000000000000003 236.2662000000001 4.378459599958436
3.9000000000000004 236.20199999999994 4.217727495372951
4.0 235.86720000000003 4.2630385475218855
