# Rounds: 50, repetitions: 1000
# Good arm ~ N(5.0,0.0), 1 bad arm(s) ~ N(4.2,0.0)
# Observation noise range from 0.5 to 4.0 with step size 0.1

# Observation noise | mean | standard deviation

0.5 249.81200000000004 5.03691438347989
0.6 249.3552000000001 4.928208619792809
0.7 248.7544000000001 5.151727956806411
0.7999999999999999 248.51600000000025 4.999521899063863
0.8999999999999999 247.9368000000001 4.379569201004403
0.9999999999999999 247.37439999999972 4.723106220737825
1.0999999999999999 246.53920000000005 4.645785906247362
1.1999999999999997 245.6264000000001 5.4601681729115725
1.2999999999999996 245.30799999999996 4.819963490323128
1.3999999999999995 244.60879999999995 5.2903298715817275
1.4999999999999993 243.65280000000013 5.501152137037733
1.5999999999999992 242.84879999999993 5.3184946126648285
1.699999999999999 242.30480000000009 5.169485519908202
1.799999999999999 241.71119999999982 5.319482254078072
1.8999999999999988 240.91440000000017 5.667068758036066
1.9999999999999987 240.35440000000003 5.637270568232424
2.0999999999999988 239.95359999999982 5.554981986007234
2.199999999999999 239.49679999999972 5.75583872597551
2.299999999999999 238.66160000000005 5.788176606534096
2.399999999999999 238.0511999999998 5.838502091004744
2.499999999999999 237.3575999999998 6.016763555574025
2.599999999999999 236.77119999999988 6.255229688705167
2.6999999999999993 236.46800000000005 6.03683189589866
2.7999999999999994 235.99199999999968 5.87127310281578
2.8999999999999995 235.42799999999994 6.05521606894766
2.9999999999999996 235.38319999999985 5.829286263200547
3.0999999999999996 235.07599999999994 5.986222419761825
3.1999999999999997 234.46479999999994 6.044344054986876
3.3 234.37999999999982 5.824383524755533
3.4 233.7031999999999 5.722798282324859
3.5 233.2088 5.996589167321856
3.6 232.95119999999972 5.937561215953355
3.7 232.67759999999996 5.727175462545134
3.8000000000000003 232.49440000000007 5.807210374382214
3.9000000000000004 231.9959999999999 5.761379825831457
4.0 231.81359999999995 5.866377879870144
