# Rounds: 50, repetitions: 1000
# Good arm ~ N(5.0,0.0), 1 bad arm(s) ~ N(3.1,0.0)
# Observation noise range from 0.5 to 4.0 with step size 0.1

# Observation noise | mean | standard deviation

0.5 249.5375000000001 5.517793925093605
0.6 249.04919999999987 6.0133101748753255
0.7 249.40640000000005 5.240167783420507
0.7999999999999999 249.15750000000017 4.9750371601370595
0.8999999999999999 248.6654 5.4276866732174405
0.9999999999999999 248.28540000000012 5.525473527010801
1.0999999999999999 247.95100000000005 5.701553008322102
1.1999999999999997 247.66980000000004 5.1254637193465955
1.2999999999999996 246.99910000000003 5.294916933752161
1.3999999999999995 246.88129999999984 4.857094983802706
1.4999999999999993 246.30179999999987 4.937320517638466
1.5999999999999992 245.24350000000004 5.197901107747798
1.699999999999999 244.7969999999999 5.4980213931230875
1.799999999999999 244.0674000000001 5.528951667951713
1.8999999999999988 243.53349999999992 5.445410934929551
1.9999999999999987 242.77730000000008 5.762581197002969
2.0999999999999988 242.11230000000006 5.482491808149494
2.199999999999999 241.47770000000014 5.854592125755565
2.299999999999999 240.5808999999998 6.212962747039131
2.399999999999999 239.98999999999995 5.976366534689524
2.499999999999999 239.14449999999985 6.016734233854837
2.599999999999999 238.17169999999973 6.300311344134757
2.6999999999999993 237.29769999999988 7.0120377482856835
2.7999999999999994 236.12349999999998 6.915065862729416
2.8999999999999995 235.47180000000003 7.0156970262949985
2.9999999999999996 234.6092 7.2161491231936346
3.0999999999999996 234.15130000000016 7.354559664443373
3.1999999999999997 232.9676000000003 7.6115889620056665
3.3 231.61859999999996 8.224850284485559
3.4 230.95930000000007 8.022955897381681
3.5 230.23540000000042 7.744325756411707
3.6 229.36139999999978 8.289096401849802
3.7 228.30119999999988 8.586174990119936
3.8000000000000003 227.4252999999997 8.548326373846168
3.9000000000000004 226.57030000000006 8.837607777063944
4.0 225.69820000000016 9.115829919163431
