# Rounds: 5000, repetitions: 1000
# Good arm ~ N(5.0,0.0), 16 bad arm(s) ~ N(0.5,0.0)
# Observation noise range from 0.5 to 8.0 with step size 0.1

# Observation noise | mean | standard deviation

0.5 24932.572500000006 2.0826260060512887
0.6 24932.43299999999 2.391386570533893
0.7 24932.2755 2.851311931327362
0.7999999999999999 24932.235 2.660141227707883
0.8999999999999999 24932.04150000001 3.3680664514854373
0.9999999999999999 24931.060499999992 4.446162177441131
1.0999999999999999 24928.19850000001 6.1179471252232185
1.1999999999999997 24919.031999999985 7.959166057089351
1.2999999999999996 24900.86100000001 9.647681418701463
1.3999999999999995 24880.008000000005 8.333209368447376
1.4999999999999993 24865.13099999999 5.560373796495723
1.5999999999999992 24857.395499999988 4.868678854040772
1.699999999999999 24849.893999999975 6.612298124441033
1.799999999999999 24838.13999999999 8.308575836593938
1.8999999999999988 24821.40900000003 8.969764527325921
1.9999999999999987 24804.426000000014 9.141695389510325
2.0999999999999988 24787.86149999999 8.268702388476115
2.199999999999999 24773.348999999973 8.947500028318336
2.299999999999999 24757.63950000004 10.073418660688787
2.399999999999999 24739.815000000024 10.283580457555956
2.499999999999999 24721.89600000001 10.423715164845838
2.599999999999999 24703.92750000002 10.36102526753955
2.6999999999999993 24685.175999999985 11.09128218649864
2.7999999999999994 24666.671999999995 11.55083710550183
2.8999999999999995 24647.42099999999 11.596734162825458
2.9999999999999996 24627.783 11.87069182163893
3.0999999999999996 24607.398000000005 12.251804059105027
3.1999999999999997 24586.84650000001 12.314354675787158
3.3 24565.5435 13.733971739075747
3.4 24543.84 14.219989736568307
3.5 24522.325500000024 14.781433981198862
3.6 24499.63649999999 14.222548950474653
3.7 24476.983499999995 14.545430461052
3.8000000000000003 24454.685999999987 15.152425548406292
3.9000000000000004 24431.60550000002 15.703605413183745
4.0 24408.19200000001 16.084210824216218
4.1 24383.297999999977 16.662993469102478
4.199999999999999 24358.11600000002 16.574460979372986
4.299999999999999 24333.590999999986 17.72377926265585
4.399999999999999 24308.660999999953 17.842461501497805
4.499999999999998 24282.480000000018 18.13150162979758
4.599999999999998 24257.370000000014 18.077759966472776
4.6999999999999975 24229.9785 18.95842054231995
4.799999999999997 24204.189 18.638580302042186
4.899999999999997 24176.851500000015 19.89562850939331
4.9999999999999964 24151.593000000008 19.497756627712683
5.099999999999996 24123.724499999957 20.821188045393153
5.199999999999996 24094.911 21.25398341042946
5.299999999999995 24066.561000000012 20.96340247295853
5.399999999999995 24037.71600000002 21.319811874835533
5.499999999999995 24009.334500000026 21.999348424012126
5.599999999999994 23980.367999999995 22.402755622009085
5.699999999999994 23951.419499999993 23.297296705493174
5.799999999999994 23921.242499999997 23.319653728132412
5.899999999999993 23891.4795 23.685181391907754
5.999999999999993 23861.752500000024 24.54614036374668
6.0999999999999925 23829.18149999997 23.98696901303774
6.199999999999992 23798.788499999988 24.864820068261697
6.299999999999992 23769.034499999965 25.090398319632996
6.3999999999999915 23738.09699999999 25.017633240835767
6.499999999999991 23706.68250000001 24.996124699641005
6.599999999999991 23673.863999999994 25.82940499047861
6.69999999999999 23642.697000000004 26.551547519413543
6.79999999999999 23608.208999999995 27.196580170546707
6.89999999999999 23574.54000000001 27.347463936968264
6.999999999999989 23543.130000000026 28.67209774657565
7.099999999999989 23508.507000000012 28.120547935917273
7.199999999999989 23478.429 29.800470248420975
7.299999999999988 23441.830500000007 29.82019053449381
7.399999999999988 23406.514499999997 30.43636660579182
7.499999999999988 23374.541999999976 31.050859760913124
7.599999999999987 23339.00549999999 30.55505410044434
7.699999999999987 23305.273499999974 31.74547562996928
7.7999999999999865 23267.945999999974 31.609480274804284
7.899999999999986 23234.22300000001 32.15943096511506
7.999999999999986 23198.33100000001 32.45548177576936
