# Rounds: 5000, repetitions: 1000
# Good arm ~ N(5.0,1.0), 16 bad arm(s) ~ N(2.0,1.0)
# Observation noise range from 0.5 to 8.0 with step size 0.1

# Observation noise | mean | standard deviation

0.5 24947.689312639966 71.54613373025097
0.6 24946.44815771038 74.47247210378814
0.7 24938.033601767347 72.4996609609088
0.7999999999999999 24930.66580192784 70.43726379307292
0.8999999999999999 24928.138881072013 73.792040027425
0.9999999999999999 24914.06885153763 69.62974052135071
1.0999999999999999 24906.935653883414 70.20863662621161
1.1999999999999997 24889.841170279346 71.86983612117216
1.2999999999999996 24877.622156075824 71.370122586889
1.3999999999999995 24861.26481947132 71.18480473596033
1.4999999999999993 24843.791702839724 73.4895242492377
1.5999999999999992 24827.22884909869 74.0584151208548
1.699999999999999 24812.03571377838 70.97815947543762
1.799999999999999 24797.10114328209 72.7655469217783
1.8999999999999988 24778.996046017306 71.88153859930203
1.9999999999999987 24760.058547234094 71.1040314235336
2.0999999999999988 24738.41771852425 72.9832539843203
2.199999999999999 24721.62836758553 75.89824270509925
2.299999999999999 24701.938943619145 72.95223722997795
2.399999999999999 24678.16760074882 77.59043616804024
2.499999999999999 24655.08934204838 75.83145097263039
2.599999999999999 24630.573107264147 73.68895708399451
2.6999999999999993 24610.010425672208 73.63892095280254
2.7999999999999994 24592.49152311344 74.64670251484681
2.8999999999999995 24568.095376508816 73.83371571330771
2.9999999999999996 24538.518566420265 74.865063469082
3.0999999999999996 24523.155204176044 77.57706958263509
3.1999999999999997 24492.68085029101 78.28609274163753
3.3 24469.287616571266 73.81711353784074
3.4 24438.118948662708 76.94496438701638
3.5 24413.38685920979 78.41681178071126
3.6 24387.776250591036 74.45271523643541
3.7 24358.532465389933 80.84407512594684
3.8000000000000003 24334.6203773993 78.56693111403882
3.9000000000000004 24307.809739393553 75.70443983574643
4.0 24277.497974195525 80.82383067551771
4.1 24248.786185179768 77.99538527343026
4.199999999999999 24220.561203814425 79.01836937623287
4.299999999999999 24194.330053480862 78.16807949515243
4.399999999999999 24159.791329472595 80.29451863204531
4.499999999999998 24131.618330038582 75.33970345736333
4.599999999999998 24098.864534004908 78.61773739076004
4.6999999999999975 24072.566953902373 80.57130350853883
4.799999999999997 24040.022996928652 84.37771318905983
4.899999999999997 24008.605630317525 82.64828747124699
4.9999999999999964 23975.03209648296 82.11856490292533
5.099999999999996 23939.97833468989 83.68265688085808
5.199999999999996 23911.122789570512 84.387762111388
5.299999999999995 23882.408827654403 86.75619555844553
5.399999999999995 23848.02171891971 86.43403011387419
5.499999999999995 23813.41891084475 84.9192662175815
5.599999999999994 23783.08969185838 82.36107045646625
5.699999999999994 23747.450215272514 82.80110969738264
5.799999999999994 23710.51843679831 85.47767057702417
5.899999999999993 23679.55266063013 86.31261660975093
5.999999999999993 23646.64595178477 88.0714428695302
6.0999999999999925 23606.926909982154 90.06137092691566
6.199999999999992 23578.717943332264 88.14842197099601
6.299999999999992 23548.568623322295 87.32459738779666
6.3999999999999915 23504.119277240432 88.26249535926898
6.499999999999991 23468.71745941565 85.45647384278081
6.599999999999991 23438.35784228714 90.69708575918493
6.69999999999999 23402.112234750566 89.74289715973917
6.79999999999999 23364.048307088946 90.35578599193742
6.89999999999999 23327.356142527613 92.3168828455377
6.999999999999989 23290.50643748601 92.01753322760356
7.099999999999989 23253.76773956139 94.57657954269646
7.199999999999989 23217.330446276243 95.31184935126653
7.299999999999988 23177.985995550458 94.67953480765878
7.399999999999988 23146.12348560157 93.78727971920978
7.499999999999988 23103.523255736218 95.65852254190534
7.599999999999987 23065.81961580069 95.67282590378574
7.699999999999987 23025.80982354616 97.55564580581442
7.7999999999999865 22985.163362856358 95.18160219247741
7.899999999999986 22951.148515154895 98.60134054398364
7.999999999999986 22910.22847940459 99.84410945817102
