# Rounds: 100, repetitions: 1000
# Good arm ~ N(5.0,0.0), 1 bad arm(s) ~ N(3.1,0.0)
# Observation noise range from 0.5 to 4.0 with step size 0.1

# Observation noise | mean | standard deviation

0.5 499.5317999999996 5.513778242776065
0.6 499.0359000000005 6.00642642078869
0.7 499.3151999999999 5.190652351278367
0.7999999999999999 499.01119999999935 4.887660358881708
0.8999999999999999 498.4222000000001 5.284696318160115
0.9999999999999999 497.98899999999963 5.355791585144407
1.0999999999999999 497.64699999999965 5.561409918382214
1.1999999999999997 497.22330000000073 4.884500532854482
1.2999999999999996 496.51839999999976 5.044760752607716
1.3999999999999995 496.3303000000002 4.568626079496377
1.4999999999999993 495.60259999999977 4.569042502471314
1.5999999999999992 494.5005999999999 4.803550117749754
1.699999999999999 493.8868999999997 5.105105335885891
1.799999999999999 493.1345000000003 5.105379971623529
1.8999999999999988 492.4068000000007 4.979480795121998
1.9999999999999987 491.6487000000001 5.345110711530519
2.0999999999999988 490.7595000000004 4.954147083335672
2.199999999999999 489.95959999999957 5.350743714503462
2.299999999999999 489.02290000000033 5.687534935597647
2.399999999999999 488.20969999999943 5.436330527074305
2.499999999999999 487.1532999999996 5.390980595567165
2.599999999999999 486.04559999999964 5.6536664727046695
2.6999999999999993 485.0233999999996 6.339550641988951
2.7999999999999994 483.88340000000034 6.37002996238808
2.8999999999999995 482.74149999999986 6.382716256956515
2.9999999999999996 481.7743999999996 6.616789746285322
3.0999999999999996 481.00300000000016 6.883725493994994
3.1999999999999997 479.5362000000002 7.01046190604699
3.3 477.9629999999996 7.533403159473383
3.4 477.1554999999996 7.435117397911135
3.5 476.2378000000001 7.252309090706696
3.6 474.86410000000006 7.839590574154401
3.7 473.6747000000001 8.082468447584949
3.8000000000000003 472.37320000000005 8.171969336876092
3.9000000000000004 471.1021000000005 8.633690184167863
4.0 470.0324000000004 8.83538988128734
