# Rounds: 100, repetitions: 1000
# Good arm ~ N(5.0,0.0), 1 bad arm(s) ~ N(0.2,0.0)
# Observation noise range from 0.5 to 4.0 with step size 0.1

# Observation noise | mean | standard deviation

0.5 499.32159999999965 2.389217822175654
0.6 499.1728000000001 2.5511739745945405
0.7 499.1008 2.7611054060037596
0.7999999999999999 498.99039999999974 2.7940570134832
0.8999999999999999 498.79839999999973 3.0172539272095182
0.9999999999999999 498.68799999999965 3.1991890864421753
1.0999999999999999 498.4624000000004 3.309673727148953
1.1999999999999997 498.49599999999947 3.486209640520428
1.2999999999999996 498.2655999999998 3.703118919198968
1.3999999999999995 497.9824000000002 3.6591528581954234
1.4999999999999993 497.5263999999994 4.0258652027397135
1.5999999999999992 497.07520000000056 4.239188091566072
1.699999999999999 496.6239999999998 4.2521600234309895
1.799999999999999 496.18240000000026 4.036392288009482
1.8999999999999988 495.28959999999995 4.269740334320407
1.9999999999999987 494.86240000000055 4.503659533000811
2.0999999999999988 494.26719999999966 4.354864981719758
2.199999999999999 493.60479999999995 4.479701405750711
2.299999999999999 493.0095999999998 4.252216973437389
2.399999999999999 492.14560000000034 4.556758133221966
2.499999999999999 491.3967999999997 4.774572892553431
2.599999999999999 490.64799999999997 4.835663309168633
2.6999999999999993 489.64960000000025 5.015685091484227
2.7999999999999994 489.0015999999999 4.764096352305891
2.8999999999999995 488.1615999999999 5.194449705959986
2.9999999999999996 487.46079999999984 5.257004799261607
3.0999999999999996 486.4911999999992 5.380542053807703
3.1999999999999997 485.66080000000017 5.433634855945718
3.3 484.6576 5.582688299435047
3.4 483.94240000000013 5.664454809448874
3.5 482.6656000000003 6.12111466031184
3.6 481.92159999999996 5.9424478227516895
3.7 480.40480000000014 6.575300109617175
3.8000000000000003 479.60320000000036 6.400574748967239
3.9000000000000004 478.43200000000047 6.662672677477669
4.0 477.21759999999955 6.459285766446051
