# Rounds: 100, repetitions: 1000
# Good arm ~ N(5.0,0.0), 1 bad arm(s) ~ N(3.5,0.0)
# Observation noise range from 0.5 to 4.0 with step size 0.1

# Observation noise | mean | standard deviation

0.5 499.64649999999983 5.454405401901136
0.6 499.5295 5.559747345027519
0.7 499.03150000000016 5.298002130669287
0.7999999999999999 498.4825000000001 5.696129355943392
0.8999999999999999 498.2724999999999 5.076392765883411
0.9999999999999999 497.7249999999997 5.159505353761673
1.0999999999999999 497.04699999999985 5.172866666515706
1.1999999999999997 496.5565000000005 5.1860343908137345
1.2999999999999996 495.8784999999997 5.087176733426602
1.3999999999999995 495.26049999999964 4.896209004179922
1.4999999999999993 494.68450000000047 5.063976066649954
1.5999999999999992 493.41700000000037 5.443550609964339
1.699999999999999 492.9700000000004 4.908991566319713
1.799999999999999 491.72499999999997 5.638010479075249
1.8999999999999988 490.786 5.547384742153492
1.9999999999999987 490.10500000000036 5.557865135541227
2.0999999999999988 489.3505 5.279893656791495
2.199999999999999 488.1460000000003 5.573486139549272
2.299999999999999 487.41400000000016 5.6584115811437385
2.399999999999999 486.5815000000001 6.057375632198297
2.499999999999999 485.0665000000001 6.288749965305196
2.599999999999999 483.6939999999996 6.489836822446463
2.6999999999999993 483.1210000000003 6.3824442492351325
2.7999999999999994 481.74699999999984 6.720279246664759
2.8999999999999995 481.14550000000037 6.466753331359454
2.9999999999999996 479.68599999999935 7.152556400551002
3.0999999999999996 478.39450000000005 7.355489308874898
3.1999999999999997 477.13450000000057 7.346947487724921
3.3 476.47000000000065 7.644935908498199
3.4 474.6969999999998 8.157679739897775
3.5 473.93800000000016 7.625634813332356
3.6 472.8624999999998 8.412289246118474
3.7 471.63099999999986 8.45223516469338
3.8000000000000003 470.0184999999998 9.021490732968969
3.9000000000000004 468.81250000000017 9.241184623371806
4.0 467.84200000000027 8.978203837301994
