# Rounds: 100, repetitions: 1000
# Good arm ~ N(5.0,0.0), 1 bad arm(s) ~ N(2.8,0.0)
# Observation noise range from 0.5 to 4.0 with step size 0.1

# Observation noise | mean | standard deviation

0.5 499.68700000000007 4.930060496230921
0.6 499.48899999999986 5.568382699301997
0.7 499.3723999999998 5.593843877811533
0.7999999999999999 499.15019999999976 5.231363792275122
0.8999999999999999 498.6617999999999 5.315938295349212
0.9999999999999999 498.39560000000006 5.356412212646833
1.0999999999999999 498.06339999999966 4.832201424879851
1.1999999999999997 497.6432 4.717582998670924
1.2999999999999996 497.1679999999998 4.584634650097545
1.3999999999999995 496.5806000000007 4.852951140777618
1.4999999999999993 495.81280000000004 5.063978676894283
1.5999999999999992 495.3134000000002 4.94468910957913
1.699999999999999 494.22439999999966 5.372488089169479
1.799999999999999 493.76680000000005 5.158642200167517
1.8999999999999988 493.08920000000023 4.904358887367044
1.9999999999999987 492.16740000000004 4.799768225134949
2.0999999999999988 491.65259999999984 4.731348528580277
2.199999999999999 490.89140000000043 5.211745228647339
2.299999999999999 489.9278 5.686683174357924
2.399999999999999 489.0015999999999 5.620361723759959
2.499999999999999 487.8026000000002 5.638218046754012
2.599999999999999 487.2349999999997 5.5567988098376535
2.6999999999999993 485.98320000000035 5.97762576360965
2.7999999999999994 485.2791999999997 6.257750938380898
2.8999999999999995 483.9328 6.376442831483975
2.9999999999999996 483.00440000000026 6.439111957622938
3.0999999999999996 482.1969999999998 6.186532484694822
3.1999999999999997 480.7537999999996 6.588817654031586
3.3 480.0278000000002 6.779175789458806
3.4 478.65720000000016 7.089227412441048
3.5 477.7684 6.837285273404201
3.6 476.5891999999997 7.123751202224221
3.7 474.8380000000001 7.7689505464118165
3.8000000000000003 474.0812 7.846880915376504
3.9000000000000004 472.61820000000006 8.164285904126848
4.0 471.6369999999996 7.967794974568352
