# Rounds: 50, repetitions: 1000
# Good arm ~ N(5.0,0.0), 4 bad arm(s) ~ N(1.5,0.0)
# Observation noise range from 0.5 to 4.0 with step size 0.1

# Observation noise | mean | standard deviation

0.5 239.53699999999975 3.6210140489568188
0.6 239.18349999999992 4.160515309145943
0.7 239.11700000000013 4.126358908025033
0.7999999999999999 238.75999999999993 4.568946845310755
0.8999999999999999 238.61649999999995 4.697099156978738
0.9999999999999999 238.0355 5.008350359481967
1.0999999999999999 237.7030000000002 5.405229644289598
1.1999999999999997 237.0940000000003 5.677314144548959
1.2999999999999996 235.9635000000001 6.2800363539240065
1.3999999999999995 234.8959999999999 6.459249639540655
1.4999999999999993 233.82149999999982 6.959944581573806
1.5999999999999992 232.74350000000007 6.370992646150016
1.699999999999999 231.33650000000006 6.470075705092626
1.799999999999999 229.4989999999998 7.161234689792107
1.8999999999999988 227.62650000000002 6.930424123279073
1.9999999999999987 226.03399999999985 8.380696873177085
2.0999999999999988 224.23149999999998 8.346605512037435
2.199999999999999 222.54799999999994 8.280746751758995
2.299999999999999 221.2949999999999 8.72849710211683
2.399999999999999 219.53449999999992 8.365676559268495
2.499999999999999 217.58849999999984 8.571983238822092
2.599999999999999 215.016 9.142337027605482
2.6999999999999993 212.8389999999999 9.388275598783771
2.7999999999999994 211.23599999999985 10.260779092621952
2.8999999999999995 209.0135000000001 10.564429701830804
2.9999999999999996 207.21800000000002 10.229008192811682
3.0999999999999996 205.02700000000007 10.912165062275527
3.1999999999999997 202.6715000000002 11.042793171613399
3.3 200.29850000000008 11.350946733279175
3.4 198.45050000000015 12.017871233249984
3.5 196.71450000000007 11.598459553493049
3.6 194.41149999999973 12.251265700378108
3.7 192.18200000000004 13.302643960368785
3.8000000000000003 189.95249999999996 12.95022015071374
3.9000000000000004 187.7125000000002 13.766103273960614
4.0 185.987 13.126886384293307
