# Rounds: 50, repetitions: 1000
# Good arm ~ N(5.0,1.0), 4 bad arm(s) ~ N(2.6,1.0)
# Observation noise range from 0.5 to 4.0 with step size 0.1

# Observation noise | mean | standard deviation

0.5 239.79806599509254 10.486584164625384
0.6 239.6838980847179 10.138597796153327
0.7 239.08771192002766 10.49025984659049
0.7999999999999999 238.912798244473 10.062438373240138
0.8999999999999999 237.71782264264314 10.718102350723852
0.9999999999999999 236.9489301159454 10.79884681328262
1.0999999999999999 235.75087399082616 10.514053538782449
1.1999999999999997 234.52155078403004 11.442700735020862
1.2999999999999996 234.10692872451622 10.641193235396992
1.3999999999999995 231.65057141138894 11.507865059122288
1.4999999999999993 231.25953187230235 11.697657043976914
1.5999999999999992 229.4804850342828 11.709667317242317
1.699999999999999 228.2017285632091 12.594175689937819
1.799999999999999 226.2997408617441 12.726599022555787
1.8999999999999988 224.70544078470144 12.309813903006653
1.9999999999999987 223.80676297448952 13.071394578762392
2.0999999999999988 222.12029822782088 13.516636112747726
2.199999999999999 220.28525857828006 13.020650856144764
2.299999999999999 219.0325994651849 13.645171838817674
2.399999999999999 216.97092289086123 13.335611695943832
2.499999999999999 215.679968349072 14.214792941929346
2.599999999999999 213.63680892378432 14.59704778867461
2.6999999999999993 211.6816523234176 14.959106561279649
2.7999999999999994 209.9599363955145 14.765740642150739
2.8999999999999995 208.24258898418128 15.463713696845044
2.9999999999999996 207.3895502515177 15.40853250403303
3.0999999999999996 205.01117587062694 15.790009765108493
3.1999999999999997 203.68515501272861 15.449110678725487
3.3 202.07258659009696 15.47283082428815
3.4 200.33397929756237 15.33791020141779
3.5 198.84179619059978 16.026397117648752
3.6 198.1533964722428 15.414194768100593
3.7 195.64471991177643 16.03634431281164
3.8000000000000003 193.71558740858197 15.934197984636127
3.9000000000000004 192.3920593980484 16.134935417043735
4.0 191.00535931428035 15.640511402850532
