# Rounds: 50, repetitions: 1000
# Good arm ~ N(5.0,0.0), 4 bad arm(s) ~ N(2.6,0.0)
# Observation noise range from 0.5 to 4.0 with step size 0.1

# Observation noise | mean | standard deviation

0.5 242.2944 5.612631314300809
0.6 241.83360000000005 5.626093135023958
0.7 241.59120000000001 6.120204200797476
0.7999999999999999 241.1808000000002 6.432097888188849
0.8999999999999999 240.7344000000002 6.493401335271141
0.9999999999999999 239.96880000000013 6.315583358103438
1.0999999999999999 239.0736000000002 6.060121129821441
1.1999999999999997 237.7679999999999 6.4429191526207585
1.2999999999999996 236.01360000000025 6.867215861882723
1.3999999999999995 234.9984000000001 6.568258479951838
1.4999999999999993 233.59439999999995 6.658058153724568
1.5999999999999992 232.02480000000003 6.767243200930536
1.699999999999999 230.28720000000004 8.077745113961344
1.799999999999999 228.8688 7.738223741057556
1.8999999999999988 226.9224 7.9197411915125295
1.9999999999999987 225.82799999999995 7.934497605535723
2.0999999999999988 224.31839999999985 7.779796055595959
2.199999999999999 221.9543999999999 8.549637240078482
2.299999999999999 220.80240000000003 9.140662226881908
2.399999999999999 219.30959999999973 8.615045376946453
2.499999999999999 217.33200000000005 9.368984676787255
2.599999999999999 214.99679999999984 10.046027694189968
2.6999999999999993 213.55919999999998 9.875246622533322
2.7999999999999994 211.9824000000001 9.804495824792763
2.8999999999999995 209.91359999999983 10.79371295149538
2.9999999999999996 208.48319999999973 10.694398904469963
3.0999999999999996 206.89919999999995 11.160350926059294
3.1999999999999997 205.24559999999983 11.038380609785388
3.3 202.63919999999993 11.643598960663203
3.4 201.6480000000001 11.781335062540899
3.5 200.71920000000017 11.598151079739779
3.6 198.10559999999998 12.140098460499832
3.7 197.1912 11.706299158999846
3.8000000000000003 194.84879999999995 12.04987377602018
3.9000000000000004 193.1591999999999 12.360171082521056
4.0 191.93040000000002 12.85195738588674
