# Rounds: 50, repetitions: 1000
# Good arm ~ N(5.0,0.0), 4 bad arm(s) ~ N(0.8,0.0)
# Observation noise range from 0.5 to 4.0 with step size 0.1

# Observation noise | mean | standard deviation

0.5 237.36420000000027 3.0574411370141563
0.6 237.21720000000002 3.0512118992383788
0.7 237.04499999999985 3.494003872788762
0.7999999999999999 236.9274 3.5635976861127787
0.8999999999999999 236.62080000000017 3.8435426601223366
0.9999999999999999 236.6375999999996 3.8687094945411715
1.0999999999999999 236.08320000000035 4.5954625486490395
1.1999999999999997 235.81020000000007 4.949281902594722
1.2999999999999996 235.0164000000003 5.340862838142905
1.3999999999999995 234.34439999999987 5.661583008502317
1.4999999999999993 233.3364000000002 6.015079069822432
1.5999999999999992 232.47959999999986 6.19429682475365
1.699999999999999 231.04319999999984 6.734363028928952
1.799999999999999 229.26240000000016 6.640937304950877
1.8999999999999988 227.54460000000017 7.46820091219193
1.9999999999999987 226.24259999999995 7.525858341995515
2.0999999999999988 224.2601999999999 7.989784265711608
2.199999999999999 222.4037999999998 8.023570479733053
2.299999999999999 220.32899999999995 8.521023814474812
2.399999999999999 219.15719999999982 8.515705807823869
2.499999999999999 217.3764000000001 8.31574137371978
2.599999999999999 215.11260000000001 8.607634553848886
2.6999999999999993 212.71440000000018 9.3068496329365
2.7999999999999994 211.28640000000001 9.337307982516158
2.8999999999999995 209.0562000000002 9.968177673282424
2.9999999999999996 206.70420000000024 10.137433102610826
3.0999999999999996 204.5034000000001 10.389028845872
3.1999999999999997 201.5045999999998 11.424640968593335
3.3 199.83720000000002 11.309856277115452
3.4 197.53140000000002 12.137100281502306
3.5 195.58680000000004 12.172092079243638
3.6 193.24320000000031 12.128275591724801
3.7 190.34939999999995 12.878293756941929
3.8000000000000003 188.20320000000004 12.877082317396662
3.9000000000000004 186.41819999999993 12.626430037643134
4.0 183.6546 13.133722759123316
