# Rounds: 50, repetitions: 1000
# Good arm ~ N(5.0,0.0), 4 bad arm(s) ~ N(0.5,0.0)
# Observation noise range from 0.5 to 4.0 with step size 0.1

# Observation noise | mean | standard deviation

0.5 236.37 2.769525278864634
0.6 236.28450000000012 2.692779383984275
0.7 235.85250000000016 3.862436039879793
0.7999999999999999 235.87499999999994 3.5493623332893094
0.8999999999999999 235.75349999999995 3.8210061289976696
0.9999999999999999 235.40699999999995 4.142766408272789
1.0999999999999999 235.2539999999998 4.4693913969867705
1.1999999999999997 234.98400000000024 4.469028553971907
1.2999999999999996 234.43500000000012 4.57615736357658
1.3999999999999995 233.81850000000006 5.279647945879766
1.4999999999999993 232.9050000000002 5.554216805664361
1.5999999999999992 232.1039999999998 5.911948505791867
1.699999999999999 230.63699999999994 6.275118174832072
1.799999999999999 229.16999999999987 7.10215041663731
1.8999999999999988 227.8784999999998 6.783731035113135
1.9999999999999987 226.2000000000001 7.231687029822118
2.0999999999999988 224.23349999999994 7.4721523546305555
2.199999999999999 222.47400000000033 7.873170315115181
2.299999999999999 220.74150000000037 7.938825650101081
2.399999999999999 218.4914999999999 8.55218203545547
2.499999999999999 216.9885000000001 8.617068621150803
2.599999999999999 214.82850000000002 9.563095238495716
2.6999999999999993 212.91149999999982 9.480838784308798
2.7999999999999994 210.68399999999997 9.492062117540286
2.8999999999999995 208.39349999999985 10.018446837061472
2.9999999999999996 205.7700000000001 10.298648559988948
3.0999999999999996 203.97000000000014 10.68884237657904
3.1999999999999997 201.8370000000001 11.029509557595054
3.3 198.98400000000015 11.200834910965446
3.4 197.49899999999997 11.153156140388779
3.5 194.88000000000005 12.371283225625744
3.6 192.52199999999996 12.228022756788635
3.7 191.3204999999998 12.257539599243673
3.8000000000000003 187.68449999999996 12.995310224763331
3.9000000000000004 184.96650000000005 13.737424962291689
4.0 182.5860000000001 13.81797888768615
