# Rounds: 50, repetitions: 1000
# Good arm ~ N(5.0,0.0), 4 bad arm(s) ~ N(2.4,0.0)
# Observation noise range from 0.5 to 4.0 with step size 0.1

# Observation noise | mean | standard deviation

0.5 242.14299999999966 4.428309036293746
0.6 241.4747999999999 5.670117740858235
0.7 241.4280000000001 5.559485937016469
0.7999999999999999 241.33699999999993 5.183039156218553
0.8999999999999999 240.3048000000001 6.297564312992475
0.9999999999999999 239.60539999999992 6.329644163397773
1.0999999999999999 238.8539999999999 6.172213559187698
1.1999999999999997 237.50979999999987 6.575927827066456
1.2999999999999996 236.6830000000001 6.6874055053056525
1.3999999999999995 234.82660000000033 7.002728800307122
1.4999999999999993 233.2561999999998 7.450459778490944
1.5999999999999992 231.80800000000005 7.633655001942932
1.699999999999999 230.99420000000026 7.242047611940517
1.799999999999999 228.935 6.990860256586962
1.8999999999999988 227.00579999999994 8.163573377528401
1.9999999999999987 225.92159999999998 7.928697098368545
2.0999999999999988 223.89100000000013 8.83132103545282
2.199999999999999 222.64039999999997 7.857945988307307
2.299999999999999 221.1168 8.096265019579514
2.399999999999999 218.58179999999993 8.842491640845262
2.499999999999999 217.22720000000035 9.358617626758981
2.599999999999999 215.6359999999999 9.450422979660463
2.6999999999999993 213.93040000000002 9.551552124549628
2.7999999999999994 211.70219999999992 10.413846713072118
2.8999999999999995 209.56760000000003 10.825077022013842
2.9999999999999996 208.0075999999998 11.291721091366243
3.0999999999999996 205.57660000000004 11.453088040597015
3.1999999999999997 204.3104 12.021834150259112
3.3 202.2512000000002 11.797138255993756
3.4 200.99019999999993 11.851051910754242
3.5 198.6684 11.809575246701602
3.6 197.3840000000002 12.106086954145882
3.7 195.98520000000005 12.285962959648137
3.8000000000000003 193.5776000000001 12.700270670939053
3.9000000000000004 192.77940000000027 12.58347963003872
4.0 190.3093999999999 13.208575172898032
