# Rounds: 50, repetitions: 1000
# Good arm ~ N(5.0,0.0), 4 bad arm(s) ~ N(4.0,0.0)
# Observation noise range from 0.5 to 4.0 with step size 0.1

# Observation noise | mean | standard deviation

0.5 245.28600000000006 5.391221500668365
0.6 243.64500000000004 6.398743542205686
0.7 242.67699999999977 6.007558718960805
0.7999999999999999 241.39699999999985 5.9758766806304005
0.8999999999999999 239.9700000000001 5.950336671694005
0.9999999999999999 238.6460000000001 6.215731599684732
1.0999999999999999 237.3010000000001 6.2961925829060315
1.1999999999999997 236.19299999999978 5.962323397829088
1.2999999999999996 234.68399999999997 6.520940627445297
1.3999999999999995 233.82299999999995 5.929319339336323
1.4999999999999993 232.48799999999972 6.493382787116445
1.5999999999999992 231.37999999999974 6.580189883194775
1.699999999999999 230.44899999999978 6.577435796848314
1.799999999999999 229.48000000000013 6.578516312731675
1.8999999999999988 228.6519999999999 6.811702819067735
1.9999999999999987 227.60199999999983 6.842837161618018
2.0999999999999988 226.7660000000001 6.5107321887506355
2.199999999999999 225.9010000000002 6.661649688821585
2.299999999999999 225.32299999999992 6.716381524361224
2.399999999999999 224.36500000000024 6.716910889083741
2.499999999999999 224.1529999999999 6.444619781191449
2.599999999999999 223.06500000000014 6.501310794143123
2.6999999999999993 222.49400000000006 6.638828062093344
2.7999999999999994 222.2109999999999 6.681401059667061
2.8999999999999995 221.44199999999992 6.297324216863251
2.9999999999999996 221.248 6.212172493346191
3.0999999999999996 220.55400000000003 6.4914731165756
3.1999999999999997 220.32400000000007 6.134709337748505
3.3 220.0550000000002 6.182248393197651
3.4 219.62400000000025 5.823962786843907
3.5 218.82400000000004 5.9115116484677515
3.6 218.87799999999984 5.845792443226948
3.7 218.23199999999972 5.816356763989461
3.8000000000000003 218.19199999999984 5.667031961375491
3.9000000000000004 217.9160000000002 5.742989284852083
4.0 217.60900000000007 5.448835546133573
