# Rounds: 50, repetitions: 1000
# Good arm ~ N(5.0,0.0), 4 bad arm(s) ~ N(2.8,0.0)
# Observation noise range from 0.5 to 4.0 with step size 0.1

# Observation noise | mean | standard deviation

0.5 242.64480000000017 5.5712396889445674
0.6 242.42040000000003 6.347600796826745
0.7 242.16739999999982 6.155653442918086
0.7999999999999999 241.65919999999994 6.6486013009699265
0.8999999999999999 240.70000000000002 6.770666283455543
0.9999999999999999 240.05980000000017 6.328813304075105
1.0999999999999999 238.51980000000006 6.619394560255817
1.1999999999999997 237.40440000000004 6.750599323854975
1.2999999999999996 235.91720000000015 7.212669877844614
1.3999999999999995 234.61700000000013 6.856270082153961
1.4999999999999993 233.17599999999996 7.043385072056864
1.5999999999999992 231.5546000000002 7.314596513968634
1.699999999999999 230.5690000000003 7.608927307759942
1.799999999999999 228.54060000000013 7.752210549798595
1.8999999999999988 227.23820000000006 8.151160787408283
1.9999999999999987 225.42979999999972 8.111442995390384
2.0999999999999988 224.0812000000002 8.198940735801726
2.199999999999999 222.22440000000032 8.679037408049954
2.299999999999999 220.45340000000016 8.838123152619051
2.399999999999999 218.96840000000006 9.037687826056043
2.499999999999999 216.9642000000002 9.273266513577198
2.599999999999999 215.36700000000005 9.686037906715509
2.6999999999999993 213.68839999999997 9.986478618371708
2.7999999999999994 212.60599999999985 9.467062335765474
2.8999999999999995 210.52699999999993 10.328482393292314
2.9999999999999996 209.26639999999983 11.169595825763423
3.0999999999999996 207.50419999999986 10.685676677031097
3.1999999999999997 205.60339999999985 11.12281193697821
3.3 203.5684000000002 11.561776512115973
3.4 202.40020000000007 11.385186095203824
3.5 200.86460000000005 11.440760369741092
3.6 199.74920000000012 12.071789737543796
3.7 197.97820000000007 11.943774047531976
3.8000000000000003 196.94640000000015 11.734872571710127
3.9000000000000004 195.54060000000004 11.601758161262989
4.0 194.48240000000004 11.783999018706384
