# Rounds: 50, repetitions: 1000
# Good arm ~ N(5.0,1.0), 4 bad arm(s) ~ N(1.5,1.0)
# Observation noise range from 0.5 to 4.0 with step size 0.1

# Observation noise | mean | standard deviation

0.5 238.99838706849047 8.26595232290784
0.6 237.5772328522465 8.37095684402119
0.7 238.01327251338842 8.776965542683508
0.7999999999999999 237.47825608359517 8.464096794346782
0.8999999999999999 236.88480980117743 8.753764068140319
0.9999999999999999 236.5284533651718 9.234354537238845
1.0999999999999999 235.67050603948135 9.054599716605649
1.1999999999999997 235.0237353840241 9.880632529651516
1.2999999999999996 234.28345133213787 10.03085883697783
1.3999999999999995 233.36935807405166 10.025834141643623
1.4999999999999993 231.99919239514378 10.125885872817472
1.5999999999999992 230.80803869784452 10.369868197129222
1.699999999999999 229.0934213427666 10.997031063782028
1.799999999999999 227.75221086589815 10.959121190650972
1.8999999999999988 225.5396712364033 11.636182330933098
1.9999999999999987 224.26804332248457 11.857161254224907
2.0999999999999988 223.6628352153363 12.047870292749582
2.199999999999999 221.30688352937432 11.994062370335866
2.299999999999999 219.5349301596042 12.643664109954386
2.399999999999999 217.5495154030425 12.64843128052438
2.499999999999999 215.7526185407435 13.520533638500352
2.599999999999999 213.7188863935063 13.93894206453594
2.6999999999999993 211.353126293598 14.241136218598234
2.7999999999999994 209.90150180712922 13.593553878863611
2.8999999999999995 207.91479613562254 14.909929038377465
2.9999999999999996 205.70470263721805 14.763400628078047
3.0999999999999996 203.22139617687853 15.347507294724103
3.1999999999999997 202.50483528856716 14.668608253419677
3.3 199.09846860008028 16.05492637911062
3.4 197.48598108465933 15.499203550484964
3.5 194.72401804523676 16.81386348603371
3.6 192.8686596582558 16.438477651348215
3.7 190.69702691218077 17.14215599755543
3.8000000000000003 189.32832856062055 17.205406053706938
3.9000000000000004 185.93981660515024 17.044790768297
4.0 184.1989569778691 17.71205979534577
