# Rounds: 50, repetitions: 1000
# Good arm ~ N(5.0,1.0), 4 bad arm(s) ~ N(0.4,1.0)
# Observation noise range from 0.5 to 4.0 with step size 0.1

# Observation noise | mean | standard deviation

0.5 235.07670109886132 8.100739929782012
0.6 235.12853539136805 8.092839075533165
0.7 235.06331574099187 7.869763433879613
0.7999999999999999 234.77023079444342 8.097757946018318
0.8999999999999999 234.9162055581488 7.936779543884944
0.9999999999999999 234.1008663915885 8.542200868316044
1.0999999999999999 233.90591369955777 8.803316366538532
1.1999999999999997 233.54205285230668 9.194469981715681
1.2999999999999996 233.18586062595097 8.84923649367936
1.3999999999999995 231.74065805727415 9.131566547711014
1.4999999999999993 231.47188297204556 9.623276284735777
1.5999999999999992 229.7713490757623 10.122063970448252
1.699999999999999 229.07379725387926 9.674010655673358
1.799999999999999 227.68260881171867 10.94488770511963
1.8999999999999988 226.2428730726054 10.822370705207646
1.9999999999999987 224.80292589785915 10.871216536094385
2.0999999999999988 223.66482559168102 11.38977749680277
2.199999999999999 221.19739616665348 12.419301730393723
2.299999999999999 220.05488805182233 11.832749863133664
2.399999999999999 217.1556012533663 12.43252753243977
2.499999999999999 214.73417268225373 13.023261471689205
2.599999999999999 213.20145207284529 12.954604440254101
2.6999999999999993 211.47767261921362 13.566229549232139
2.7999999999999994 209.41708824245939 13.727254652225115
2.8999999999999995 207.711157384303 13.596508362209804
2.9999999999999996 205.34244494804435 14.313056664276688
3.0999999999999996 202.68967460006724 14.546331509526986
3.1999999999999997 200.68642111295975 14.46762011319735
3.3 198.53781512110658 14.844780658987068
3.4 196.43068343366454 15.855469275041328
3.5 194.3280899168267 15.885889012162673
3.6 191.29299697955076 16.102018256687742
3.7 187.33949436941603 16.27559773830474
3.8000000000000003 186.16257790394067 16.74447465167517
3.9000000000000004 183.22906014926855 17.500768038511982
4.0 181.53278678370174 17.206729988679324
