# Rounds: 50, repetitions: 1000
# Good arm ~ N(5.0,0.0), 4 bad arm(s) ~ N(0.6,0.0)
# Observation noise range from 0.5 to 4.0 with step size 0.1

# Observation noise | mean | standard deviation

0.5 236.74879999999982 2.749512389202577
0.6 236.65639999999988 2.7857241965599173
0.7 236.34400000000005 3.4562189527646603
0.7999999999999999 236.09759999999986 3.673620792859499
0.8999999999999999 235.92160000000024 4.042132144335719
0.9999999999999999 236.0139999999999 3.892340467419894
1.0999999999999999 235.33199999999994 4.852616189632585
1.1999999999999997 235.22640000000004 4.733060838918597
1.2999999999999996 234.66320000000005 4.951480881809279
1.3999999999999995 234.15719999999985 4.991854041011896
1.4999999999999993 232.90760000000023 5.821167256506909
1.5999999999999992 232.32680000000008 5.619649652978613
1.699999999999999 230.61520000000002 6.635851375933854
1.799999999999999 229.2995999999999 6.842158648772717
1.8999999999999988 227.65840000000014 6.783111383431667
1.9999999999999987 225.73999999999998 7.532140010191893
2.0999999999999988 224.21319999999983 7.47725451586977
2.199999999999999 222.0088 7.803200144331335
2.299999999999999 220.27959999999996 8.237081604145542
2.399999999999999 219.1576 8.168052357772904
2.499999999999999 216.6320000000002 8.114393346355568
2.599999999999999 215.35159999999996 8.776712831586101
2.6999999999999993 213.06360000000004 9.072209213858548
2.7999999999999994 210.31800000000015 10.147027060088023
2.8999999999999995 208.5932000000001 9.825681542660423
2.9999999999999996 206.93439999999993 9.851714211898022
3.0999999999999996 204.2019999999999 10.97550626339115
3.1999999999999997 202.3980000000001 10.4035258133649
3.3 199.44559999999984 11.271806166460392
3.4 197.10040000000035 11.843247119871405
3.5 194.9971999999999 11.724436642098159
3.6 192.1108000000002 12.492600547060976
3.7 189.80079999999992 12.414580184652282
3.8000000000000003 186.98040000000026 13.047400142959114
3.9000000000000004 185.1104000000002 13.515937718575547
4.0 182.4748 13.596826050172092
