# Rounds: 50, repetitions: 1000
# Good arm ~ N(5.0,0.0), 4 bad arm(s) ~ N(0.7,0.0)
# Observation noise range from 0.5 to 4.0 with step size 0.1

# Observation noise | mean | standard deviation

0.5 236.94860000000003 2.964416604629971
0.6 236.85829999999999 3.24531403305955
0.7 236.65190000000007 3.5573123085921328
0.7999999999999999 236.62609999999978 3.453722193081974
0.8999999999999999 236.51000000000002 3.847961383227077
0.9999999999999999 235.9467 4.398387764275086
1.0999999999999999 235.72739999999973 4.482660313193887
1.1999999999999997 235.28879999999984 4.948304788539228
1.2999999999999996 234.9061000000001 5.276183364980874
1.3999999999999995 234.28689999999995 5.36909727939398
1.4999999999999993 233.19900000000018 5.789711543743756
1.5999999999999992 231.92190000000002 6.447935038154172
1.699999999999999 230.98020000000037 6.12751453644908
1.799999999999999 229.3849 6.839137064409951
1.8999999999999988 227.47569999999993 7.414442222005888
1.9999999999999987 226.1426999999999 7.445928320804485
2.0999999999999988 224.42700000000002 7.559922183688334
2.199999999999999 222.9348999999996 7.91192584397505
2.299999999999999 220.87520000000006 8.379707898516779
2.399999999999999 218.76389999999986 8.842644352745916
2.499999999999999 217.07829999999987 9.018359602495336
2.599999999999999 215.2895 8.772355097917801
2.6999999999999993 212.9545999999997 9.714403145251318
2.7999999999999994 210.96369999999965 9.850817779297353
2.8999999999999995 208.2762000000001 9.78968188612029
2.9999999999999996 206.29389999999992 10.703690100697635
3.0999999999999996 204.43629999999968 10.345685357457743
3.1999999999999997 201.93369999999996 10.930106199462665
3.3 199.29350000000025 11.394591895915976
3.4 197.5649000000002 11.329903119386998
3.5 194.7527 11.820257662217049
3.6 192.94240000000008 11.95144842098063
3.7 190.02269999999962 12.76418658470525
3.8000000000000003 187.4900000000001 13.31027585902871
3.9000000000000004 185.0476 13.12274440277875
4.0 182.6482000000001 13.425004562662497
