# Rounds: 100, repetitions: 1000
# Good arm ~ N(5.0,0.0), 4 bad arm(s) ~ N(4.0,0.0)
# Observation noise range from 0.5 to 4.0 with step size 0.1

# Observation noise | mean | standard deviation

0.5 494.41100000000034 5.042172399125437
0.6 492.3740000000001 5.913128536493097
0.7 490.9820000000003 5.420429600784142
0.7999999999999999 489.13500000000033 5.497180549517553
0.8999999999999999 487.17399999999935 5.315070458044181
0.9999999999999999 485.0530000000003 5.456369027381026
1.0999999999999999 483.1970000000009 5.6354191458088625
1.1999999999999997 481.10799999999983 5.255278675194496
1.2999999999999996 478.8729999999998 5.99923844015736
1.3999999999999995 477.3230000000001 5.336961134780181
1.4999999999999993 475.08299999999986 6.153696367142185
1.5999999999999992 473.15200000000016 6.270423766717378
1.699999999999999 471.12500000000017 6.5515110697683605
1.799999999999999 469.3649999999999 6.717953997007264
1.8999999999999988 467.62199999999956 7.032821380966301
1.9999999999999987 465.7189999999998 7.383803867896233
2.0999999999999988 463.80499999999984 7.205754498863949
2.199999999999999 462.2740000000002 7.714949412954338
2.299999999999999 460.82100000000037 7.7430558511426195
2.399999999999999 458.88599999999985 8.037886016336115
2.499999999999999 457.7010000000003 7.858457504774987
2.599999999999999 455.91300000000007 8.352196728417624
2.6999999999999993 454.51800000000003 8.409184882638101
2.7999999999999994 453.3709999999999 8.78057272946688
2.8999999999999995 451.65699999999987 8.535115652362261
2.9999999999999996 450.65000000000003 8.71501299204146
3.0999999999999996 449.41199999999947 9.092685683170457
3.1999999999999997 448.24800000000005 8.700816065186068
3.3 447.51299999999975 9.051063625494663
3.4 446.4569999999996 8.586960282130516
3.5 444.97699999999963 8.814315808000256
3.6 444.37399999999985 8.627082389229342
3.7 443.1989999999997 9.153643437898827
3.8000000000000003 442.3440000000001 8.70904768109071
3.9000000000000004 441.6819999999998 8.889200970497496
4.0 440.6760000000001 8.757609246804726
