# Rounds: 100, repetitions: 1000
# Good arm ~ N(5.0,0.0), 4 bad arm(s) ~ N(0.2,0.0)
# Observation noise range from 0.5 to 4.0 with step size 0.1

# Observation noise | mean | standard deviation

0.5 485.0895999999997 2.2427576333170496
0.6 485.05120000000056 2.370577608558356
0.7 484.8496000000005 2.5357227233531945
0.7999999999999999 484.86399999999986 2.6694399993088136
0.8999999999999999 484.5280000000002 3.224321983340431
0.9999999999999999 484.30719999999985 3.581828814678031
1.0999999999999999 484.0336000000003 3.9384848232159926
1.1999999999999997 483.9567999999999 4.048125625654528
1.2999999999999996 483.3232000000002 4.535013573089753
1.3999999999999995 483.08800000000014 4.4942245219897545
1.4999999999999993 481.9455999999994 5.291782648938221
1.5999999999999992 480.9567999999999 5.659746150357501
1.699999999999999 479.4111999999994 5.892370880604409
1.799999999999999 477.8320000000001 6.056359921231205
1.8999999999999988 475.8016000000004 6.265452364620886
1.9999999999999987 473.88639999999964 6.705632001574561
2.0999999999999988 471.68799999999993 6.986463101360151
2.199999999999999 469.3599999999999 7.409368309021929
2.299999999999999 467.2959999999998 7.295818869254694
2.399999999999999 465.2511999999998 7.689902024938506
2.499999999999999 463.4703999999995 7.56724434830986
2.599999999999999 460.96479999999957 7.811433892663995
2.6999999999999993 458.5888000000001 8.168939106525736
2.7999999999999994 456.1551999999999 8.465074745709568
2.8999999999999995 453.66879999999986 8.80604411600199
2.9999999999999996 450.89919999999967 9.088548898536036
3.0999999999999996 448.56640000000004 9.41558730639384
3.1999999999999997 445.68639999999937 9.742546497310283
3.3 443.0751999999998 10.370518435093464
3.4 440.6224000000001 10.25316271135815
3.5 437.21920000000017 10.830836457927836
3.6 434.6175999999995 10.846871662597689
3.7 431.52640000000014 11.632078416529351
3.8000000000000003 428.5360000000002 12.041585600899268
3.9000000000000004 425.8768000000001 12.055601157938147
4.0 422.42560000000014 12.778171477418292
