# Rounds: 100, repetitions: 1000
# Good arm ~ N(5.0,1.0), 4 bad arm(s) ~ N(1.4,1.0)
# Observation noise range from 0.5 to 4.0 with step size 0.1

# Observation noise | mean | standard deviation

0.5 488.2121502475409 11.137464637520258
0.6 488.23889892177226 11.367427692124522
0.7 487.81577822947054 11.260961876384364
0.7999999999999999 487.1610708442429 10.947666656650071
0.8999999999999999 485.77888706716755 11.740990688515662
0.9999999999999999 486.0973833321928 11.452938159325956
1.0999999999999999 484.8171884492105 12.178308431313889
1.1999999999999997 483.7960447160958 11.696248364905738
1.2999999999999996 482.6685932367976 11.950291725671342
1.3999999999999995 482.38217381441353 12.252449248173042
1.4999999999999993 480.1930066711213 12.96439392659318
1.5999999999999992 478.86415733833246 12.56469406853068
1.699999999999999 476.91423893325896 12.568697725717564
1.799999999999999 475.7359463365556 13.041967661834212
1.8999999999999988 473.63017553421383 13.303539445222906
1.9999999999999987 471.25876813193315 13.706600627905933
2.0999999999999988 469.8616497734799 13.498031379396759
2.199999999999999 467.9940880748416 14.032334320186873
2.299999999999999 465.18011888456266 14.68081665712865
2.399999999999999 462.9427396525792 14.284370577935231
2.499999999999999 460.7022374448368 14.247533382480874
2.599999999999999 457.69436357213374 15.02029228435459
2.6999999999999993 455.3671991552454 15.331325301850308
2.7999999999999994 453.74952376332817 15.599493960430166
2.8999999999999995 452.25562305441287 15.05445817870347
2.9999999999999996 447.7034050934605 16.145285713894886
3.0999999999999996 445.4731561250245 16.222408136826058
3.1999999999999997 443.5826813969181 16.705282987911573
3.3 440.4741744072759 16.730333197344894
3.4 438.4014111837238 16.73994163261108
3.5 435.8090301425445 17.61351104394939
3.6 434.176526333348 17.760078301904368
3.7 430.0234813925239 18.574126293170604
3.8000000000000003 426.9046318246832 18.198800643332987
3.9000000000000004 424.3847442136264 18.727212788714866
4.0 421.191617339689 19.426844377350736
