# Rounds: 100, repetitions: 1000
# Good arm ~ N(5.0,1.0), 4 bad arm(s) ~ N(3.3,1.0)
# Observation noise range from 0.5 to 4.0 with step size 0.1

# Observation noise | mean | standard deviation

0.5 488.3827117516004 19.3100034083844
0.6 488.08863201384827 15.845622162201057
0.7 487.31261164769916 17.525381318769245
0.7999999999999999 486.49355707742734 14.177634233538338
0.8999999999999999 485.59784665663034 14.089599306597334
0.9999999999999999 484.30244461313714 13.554732684926881
1.0999999999999999 483.26084577704125 13.239678965079591
1.1999999999999997 480.75557975970145 14.091445985595719
1.2999999999999996 479.95545748000166 14.103626476703525
1.3999999999999995 477.45663845992783 14.12820548791859
1.4999999999999993 475.99284818534403 14.420077590219499
1.5999999999999992 473.5996640897789 15.738295716126856
1.699999999999999 471.97235493598834 15.932482241171702
1.799999999999999 469.74514829828337 15.525471268361303
1.8999999999999988 467.62727885774547 16.553050800713173
1.9999999999999987 465.2863310729616 15.699531963089255
2.0999999999999988 463.52688091444463 15.599833278773989
2.199999999999999 461.1262621324795 17.11911899412066
2.299999999999999 459.8902354074218 17.110322034017862
2.399999999999999 456.33644336122154 16.62953402388116
2.499999999999999 454.19304060812624 17.69374614417365
2.599999999999999 452.2798483719198 17.18802881090749
2.6999999999999993 450.4006955228725 18.11990152152956
2.7999999999999994 448.25208006987833 17.649701224211196
2.8999999999999995 446.5689584220857 18.746731207519762
2.9999999999999996 444.15665802029736 18.405623300793103
3.0999999999999996 442.2544831851732 18.299437538959854
3.1999999999999997 440.2525460827508 19.315439228913142
3.3 438.7233763498255 18.988331492992685
3.4 435.1363441191162 19.64757547117641
3.5 433.5388237745814 19.815165337094932
3.6 432.6001103524685 19.00881598945563
3.7 429.96821396458853 19.164876895403165
3.8000000000000003 427.1911100818406 20.50911337998249
3.9000000000000004 426.48685014427906 20.07904111695261
4.0 423.57681270622606 20.41121001392386
