# Rounds: 100, repetitions: 1000
# Good arm ~ N(5.0,0.0), 4 bad arm(s) ~ N(1.4,0.0)
# Observation noise range from 0.5 to 4.0 with step size 0.1

# Observation noise | mean | standard deviation

0.5 489.01599999999974 3.49653109949415
0.6 488.9944000000003 3.519982800940804
0.7 488.66679999999957 3.9662865742642865
0.7999999999999999 488.4183999999996 4.48241826623905
0.8999999999999999 488.2095999999997 4.284636034244477
0.9999999999999999 487.7595999999999 4.904906313676758
1.0999999999999999 487.1440000000003 5.1925934779286615
1.1999999999999997 486.33760000000024 5.706490188396927
1.2999999999999996 485.4556000000002 5.546024434405855
1.3999999999999995 483.72759999999954 6.184953669340749
1.4999999999999993 482.27679999999975 6.362718439939481
1.5999999999999992 480.4732 6.501257425153078
1.699999999999999 478.82800000000003 6.526221538345723
1.799999999999999 476.87319999999954 6.398679931428419
1.8999999999999988 475.0120000000001 6.6150687929253555
1.9999999999999987 473.0284000000002 6.830936622099112
2.0999999999999988 471.3940000000003 6.83087584903028
2.199999999999999 468.78399999999993 7.311213157735014
2.299999999999999 466.9120000000004 7.289177464440569
2.399999999999999 464.85279999999966 7.128378914307661
2.499999999999999 461.77120000000025 8.156259874178557
2.599999999999999 460.07920000000047 8.355492901177131
2.6999999999999993 457.9119999999996 8.175057649189252
2.7999999999999994 455.1831999999996 8.883940688802578
2.8999999999999995 452.50120000000027 9.467402509150581
2.9999999999999996 450.36999999999966 9.44494716909669
3.0999999999999996 447.1012000000001 9.309183608644716
3.1999999999999997 444.48759999999965 10.543204702812355
3.3 441.7444000000006 10.617044328355727
3.4 439.8400000000002 10.5391932610895
3.5 437.34519999999975 10.771825712904407
3.6 433.92519999999973 11.294361760080454
3.7 431.66439999999994 11.696352307334863
3.8000000000000003 428.08239999999995 11.961041625074152
3.9000000000000004 425.1519999999999 12.827470522281436
4.0 422.52400000000006 13.16994120531111
