# Rounds: 100, repetitions: 1000
# Good arm ~ N(5.0,1.0), 4 bad arm(s) ~ N(3.2,1.0)
# Observation noise range from 0.5 to 4.0 with step size 0.1

# Observation noise | mean | standard deviation

0.5 489.8721499286231 15.852542303923702
0.6 489.1213167608638 15.459378422848507
0.7 488.5893139388487 12.799460029562146
0.7999999999999999 487.2188093308867 13.97775940555824
0.8999999999999999 485.47675478019016 13.960648518457644
0.9999999999999999 484.2359782727109 14.468025805676453
1.0999999999999999 483.2469656752721 14.878717930184004
1.1999999999999997 481.4083699300541 13.545192711003729
1.2999999999999996 479.78291503821555 14.646857396311185
1.3999999999999995 478.5674911026784 14.293855478602373
1.4999999999999993 476.45639825170076 14.563597162730527
1.5999999999999992 475.0490216241584 14.55998437005244
1.699999999999999 473.3510612388021 14.73213062768743
1.799999999999999 469.36908274811157 15.884999711319123
1.8999999999999988 467.85728668711516 15.695648568447991
1.9999999999999987 465.7636723792296 15.406798438319031
2.0999999999999988 462.90059062255176 16.68070886886492
2.199999999999999 461.3545514936116 16.92383263712768
2.299999999999999 460.1431610667399 15.743685970480803
2.399999999999999 456.8568440616722 17.811304508965215
2.499999999999999 454.7328269817051 17.098673937014386
2.599999999999999 453.41370898606857 17.24611089079675
2.6999999999999993 451.4031233187606 17.96071176733531
2.7999999999999994 448.8585405970782 18.06206447758143
2.8999999999999995 446.72457608769224 18.860257951571786
2.9999999999999996 444.7452465086409 18.50959043104676
3.0999999999999996 442.11267268213294 17.818096061068786
3.1999999999999997 439.5626506004186 18.611146981480893
3.3 436.43090417096624 19.585553158146524
3.4 436.3316669838554 19.082357502480054
3.5 433.5599147529861 19.172227867671275
3.6 431.42402145716085 19.97386076464972
3.7 429.3816771431946 20.110563322537356
3.8000000000000003 427.43292359568494 20.0043732725154
3.9000000000000004 426.1786818645339 19.674273966765927
4.0 423.424888647545 20.555557925270126
