# Rounds: 100, repetitions: 1000
# Good arm ~ N(5.0,0.0), 4 bad arm(s) ~ N(2.4,0.0)
# Observation noise range from 0.5 to 4.0 with step size 0.1

# Observation noise | mean | standard deviation

0.5 491.9999999999999 4.338795356449214
0.6 491.37339999999995 5.601513133912089
0.7 491.3109999999999 5.494089917722875
0.7999999999999999 491.11340000000035 5.1098974051825845
0.8999999999999999 489.91480000000007 6.167221057784129
0.9999999999999999 488.8773999999993 6.125276177304056
1.0999999999999999 487.77760000000006 5.870315054478671
1.1999999999999997 486.0329999999999 6.134866550104191
1.2999999999999996 484.6887999999998 6.114250454358135
1.3999999999999995 482.6114000000002 6.339749400604288
1.4999999999999993 480.8226000000001 6.78615510735947
1.5999999999999992 478.8804 6.805216146957173
1.699999999999999 477.65840000000037 6.407730366397169
1.799999999999999 475.4042000000001 6.146071636139344
1.8999999999999988 473.22799999999967 7.199355993887696
1.9999999999999987 471.5354000000002 6.947158401091028
2.0999999999999988 469.1173999999998 7.875285223873307
2.199999999999999 467.4638 7.123970839392914
2.299999999999999 465.3915999999993 7.249767483758967
2.399999999999999 462.53419999999994 7.917580339878973
2.499999999999999 460.4126 8.306585375507833
2.599999999999999 458.22079999999966 8.593722093448157
2.6999999999999993 456.26039999999983 8.668807303202685
2.7999999999999994 453.3249999999997 9.556152732928378
2.8999999999999995 450.8341999999995 9.970522638341595
2.9999999999999996 448.4499999999994 10.393979739003502
3.0999999999999996 445.51199999999955 10.53626446464155
3.1999999999999997 443.2031999999999 10.995282897952452
3.3 440.6655999999995 11.013818631194201
3.4 438.68959999999976 11.096304782215515
3.5 435.4291999999999 11.256582874834535
3.6 433.2633999999999 11.783554327646332
3.7 430.99359999999945 11.875360340773776
3.8000000000000003 427.96200000000033 12.547630813784716
3.9000000000000004 425.9236 12.523205408908407
4.0 422.32520000000005 13.559540777847364
