# Rounds: 100, repetitions: 1000
# Good arm ~ N(5.0,1.0), 4 bad arm(s) ~ N(0.0,1.0)
# Observation noise range from 0.5 to 4.0 with step size 0.1

# Observation noise | mean | standard deviation

0.5 484.10856761327483 10.599492613986737
0.6 483.8738603169912 10.40709695214323
0.7 484.01395882935236 10.686594855980188
0.7999999999999999 483.19166075692164 10.91022862628765
0.8999999999999999 483.094299413909 10.176722225369923
0.9999999999999999 483.1387401558503 10.458605713561141
1.0999999999999999 483.1311424374691 11.23118496403383
1.1999999999999997 481.79163458023123 10.779235946426533
1.2999999999999996 481.43955986797994 11.781103345480979
1.3999999999999995 480.2166543238687 11.302348561611405
1.4999999999999993 479.63193551652506 11.744050415581604
1.5999999999999992 478.5009294970906 12.150308941777974
1.699999999999999 477.542891143677 11.935751950668992
1.799999999999999 475.784454092 12.48141778171248
1.8999999999999988 473.8316734275674 12.984101921374798
1.9999999999999987 473.22544960233625 12.785283561458956
2.0999999999999988 470.25706472808884 13.181332034418427
2.199999999999999 468.9282207999677 13.44893104014894
2.299999999999999 466.2551213525651 13.578489628452097
2.399999999999999 463.974809310449 14.066751667288436
2.499999999999999 461.9259379785457 13.855902057300385
2.599999999999999 459.78234411786184 13.247464999855097
2.6999999999999993 458.3327885013201 13.828604712283083
2.7999999999999994 454.93734273437167 14.800877406824172
2.8999999999999995 452.42269804220086 15.36397450138683
2.9999999999999996 450.64198127748074 14.918784738600507
3.0999999999999996 448.14306448819497 15.730723288516685
3.1999999999999997 445.26156095964217 15.714140605801436
3.3 441.77152771336085 15.414310743161087
3.4 438.2660944550575 16.4421254004595
3.5 436.3821867713991 16.548593422095315
3.6 433.38247371741835 16.440310134145637
3.7 430.6225413411446 17.104579242007876
3.8000000000000003 428.3330752064796 17.695182003517857
3.9000000000000004 423.9893846676418 18.217822842848896
4.0 421.4449821366673 17.615314151192518
