# Rounds: 100, repetitions: 1000
# Good arm ~ N(5.0,0.0), 4 bad arm(s) ~ N(2.5,0.0)
# Observation noise range from 0.5 to 4.0 with step size 0.1

# Observation noise | mean | standard deviation

0.5 491.9974999999998 5.1483248731018
0.6 491.52500000000026 5.766943092543251
0.7 491.26000000000016 6.032104631576501
0.7999999999999999 490.55 5.927278686938317
0.8999999999999999 490.2325000000002 5.956103501360529
0.9999999999999999 488.9550000000002 5.982789380278118
1.0999999999999999 487.61750000000046 5.816035593084017
1.1999999999999997 486.325 5.6314819176296105
1.2999999999999996 484.4800000000001 6.031457409157305
1.3999999999999995 482.54 6.298855100379396
1.4999999999999993 480.79749999999996 6.11924741605853
1.5999999999999992 479.43 6.12475408588887
1.699999999999999 477.11749999999944 6.46929637175059
1.799999999999999 475.1224999999996 6.6104040111926095
1.8999999999999988 473.30750000000035 6.292359457114452
1.9999999999999987 471.2150000000001 7.269912422211607
2.0999999999999988 468.89499999999964 7.150531805754341
2.199999999999999 467.1649999999995 7.381040221727205
2.299999999999999 464.7250000000002 7.70770937333419
2.399999999999999 462.5924999999995 8.13334771758193
2.499999999999999 460.2174999999995 8.398182733378889
2.599999999999999 457.8325000000004 8.909268702807136
2.6999999999999993 455.8525000000001 8.837142572055681
2.7999999999999994 453.1200000000001 10.08239826404188
2.8999999999999995 450.5200000000004 9.715914727857538
2.9999999999999996 448.09999999999997 10.036345362143967
3.0999999999999996 446.1525 10.036369984833803
3.1999999999999997 442.92499999999984 10.520458880441234
3.3 440.66749999999996 10.64713836226924
3.4 438.2575000000003 11.48430812383066
3.5 435.1024999999999 11.477803959544413
3.6 432.93749999999983 12.197894588099295
3.7 430.50999999999976 12.11710461390114
3.8000000000000003 427.68999999999994 12.123773582754085
3.9000000000000004 424.54250000000025 13.124660012756555
4.0 423.11750000000046 13.045406332359924
