# Rounds: 100, repetitions: 1000
# Good arm ~ N(5.0,0.0), 4 bad arm(s) ~ N(3.3,0.0)
# Observation noise range from 0.5 to 4.0 with step size 0.1

# Observation noise | mean | standard deviation

0.5 493.7153999999999 6.090127461103954
0.6 493.42469999999975 6.16649702794021
0.7 491.87940000000015 6.215550555558922
0.7999999999999999 490.37490000000025 6.764894958075391
0.8999999999999999 489.10330000000005 5.998434823379395
0.9999999999999999 487.5869000000002 6.02253678605117
1.0999999999999999 485.6233999999997 6.15313037838903
1.1999999999999997 484.12739999999997 6.323120360319857
1.2999999999999996 482.2335999999998 6.222495519523564
1.3999999999999995 480.6713 6.09376569046515
1.4999999999999993 478.09409999999986 6.7438397493241835
1.5999999999999992 476.3345999999996 6.803605800742138
1.699999999999999 474.3999999999993 6.900508460759778
1.799999999999999 472.05910000000017 7.085603924364766
1.8999999999999988 470.00720000000035 7.245492759317717
1.9999999999999987 468.1287000000003 7.905256440457165
2.0999999999999988 465.8200999999999 7.590214578478487
2.199999999999999 463.9518000000003 7.4524986747061215
2.299999999999999 461.6857000000005 8.165422195430533
2.399999999999999 459.7477000000001 8.254268450786968
2.499999999999999 457.0684999999998 8.995711232057772
2.599999999999999 455.4739 8.998016063726661
2.6999999999999993 452.94600000000014 9.282905597728378
2.7999999999999994 450.6085000000002 9.907798050637304
2.8999999999999995 449.1363 9.712092310467773
2.9999999999999996 445.9845000000001 10.543048212714186
3.0999999999999996 444.2539000000004 10.998036260696333
3.1999999999999997 442.2156 11.045499522416316
3.3 440.30480000000074 11.106029031154213
3.4 437.5100000000003 12.264536634494558
3.5 436.66340000000025 11.62078065290719
3.6 433.5609 12.25869392581308
3.7 431.9170000000001 12.622317294930166
3.8000000000000003 429.6390000000002 12.167574485856585
3.9000000000000004 427.8285000000005 12.52627419847156
4.0 425.7494 12.876470134439892
