# Rounds: 100, repetitions: 1000
# Good arm ~ N(5.0,1.0), 4 bad arm(s) ~ N(0.5,1.0)
# Observation noise range from 0.5 to 4.0 with step size 0.1

# Observation noise | mean | standard deviation

0.5 485.3818873489089 10.209800187124921
0.6 484.9926804827663 10.637547991870349
0.7 485.330254338466 10.422300564852527
0.7999999999999999 485.17378922164136 10.158730098374015
0.8999999999999999 484.92075300033173 10.92579338391576
0.9999999999999999 483.9179627016512 11.157607044367744
1.0999999999999999 484.02392413668554 11.261833067687016
1.1999999999999997 483.73421164482676 11.315888057918732
1.2999999999999996 482.528413686787 11.527541839746421
1.3999999999999995 481.4079529426017 10.961627231806153
1.4999999999999993 480.6059706915916 11.792414248280227
1.5999999999999992 478.6658096127803 12.21421066923238
1.699999999999999 477.1744763680225 12.280737537105724
1.799999999999999 476.63207403948803 12.191757077650063
1.8999999999999988 473.9213848340062 13.578036313403588
1.9999999999999987 472.23168231416616 12.769084532990691
2.0999999999999988 469.91617662121695 13.687820090363777
2.199999999999999 468.60536747827075 13.63986187766778
2.299999999999999 466.2278665512944 14.02445536050378
2.399999999999999 463.54666972544214 13.892215665539823
2.499999999999999 462.1573627295831 13.950312131454336
2.599999999999999 460.22436795592733 14.51635767538413
2.6999999999999993 457.18050161302284 14.439131014592853
2.7999999999999994 454.6317109783706 15.232750143514671
2.8999999999999995 452.00717681987345 14.869370808373976
2.9999999999999996 449.8329605933087 15.803045216967233
3.0999999999999996 447.10304576074066 15.781421141053032
3.1999999999999997 444.789464333702 16.051829720451106
3.3 441.6151157173642 16.525139945475196
3.4 438.4360295946821 16.42442743573775
3.5 435.9038794623746 16.44104000954186
3.6 433.7515284207987 16.246141990749052
3.7 430.48521860374683 17.17575621017
3.8000000000000003 427.310634150188 18.07321476889027
3.9000000000000004 424.92101965599846 18.58809166886261
4.0 422.2838433529255 18.066831327568366
