# Rounds: 100, repetitions: 1000
# Good arm ~ N(5.0,0.0), 4 bad arm(s) ~ N(1.3,0.0)
# Observation noise range from 0.5 to 4.0 with step size 0.1

# Observation noise | mean | standard deviation

0.5 488.74220000000014 3.245753236780936
0.6 488.29079999999993 4.061496166575932
0.7 488.2834 4.128312900860048
0.7999999999999999 488.20569999999975 4.142897670847175
0.8999999999999999 487.74320000000023 4.642989458432076
0.9999999999999999 487.6063000000003 4.913291233047448
1.0999999999999999 487.3028999999996 4.644180229060855
1.1999999999999997 486.41859999999974 5.789009126497089
1.2999999999999996 485.2679 5.648339874098682
1.3999999999999995 483.82120000000015 5.655265917053997
1.4999999999999993 482.46699999999976 5.9528486800360705
1.5999999999999992 480.79459999999995 5.955536857350419
1.699999999999999 478.7373999999998 6.183749671518058
1.799999999999999 477.0464999999996 6.241737501452401
1.8999999999999988 475.37780000000004 6.38391114298138
1.9999999999999987 473.50560000000013 6.540717822198885
2.0999999999999988 470.78240000000056 6.985125784280633
2.199999999999999 469.5687999999998 7.142006357797148
2.299999999999999 467.03060000000005 7.485941688455966
2.399999999999999 464.2925999999997 7.903254182086429
2.499999999999999 463.0234999999996 7.747378887703241
2.599999999999999 459.95990000000006 8.370663653498458
2.6999999999999993 458.29120000000023 8.025955302549255
2.7999999999999994 455.17579999999987 8.743616253312226
2.8999999999999995 452.8892000000003 8.799935353297876
2.9999999999999996 450.9170999999995 8.658147672054998
3.0999999999999996 447.8275999999998 9.33255457068507
3.1999999999999997 444.94900000000007 10.061343331266963
3.3 442.86960000000033 10.687223801932491
3.4 439.7727000000002 10.480463005746223
3.5 437.0346999999999 10.866582191219045
3.6 434.33370000000036 11.10012283882646
3.7 431.2960000000006 11.89763748723998
3.8000000000000003 428.3470999999999 11.986747419700794
3.9000000000000004 425.7164000000006 12.768337459570908
4.0 422.3679000000002 12.811888388292905
