# Rounds: 100, repetitions: 1000
# Good arm ~ N(5.0,0.0), 4 bad arm(s) ~ N(3.6,0.0)
# Observation noise range from 0.5 to 4.0 with step size 0.1

# Observation noise | mean | standard deviation

0.5 494.1206 6.6353238928603595
0.6 492.97960000000046 6.262964838522481
0.7 492.0135999999999 5.328524017794034
0.7999999999999999 490.27900000000056 5.862525753308756
0.8999999999999999 488.49399999999986 6.106138626736961
0.9999999999999999 486.6488000000007 6.000548737002735
1.0999999999999999 484.7210000000003 5.889904071372487
1.1999999999999997 483.0144000000004 6.056209236008163
1.2999999999999996 481.3190000000002 5.846104338440779
1.3999999999999995 478.9151999999999 6.342958464477128
1.4999999999999993 476.9103999999996 6.330469705060347
1.5999999999999992 474.9797999999997 6.280818469008691
1.699999999999999 473.1164 7.032984708778649
1.799999999999999 470.3332000000002 7.1667915178733335
1.8999999999999988 469.1138000000004 7.365915168277907
1.9999999999999987 467.03900000000056 7.22818134841717
2.0999999999999988 464.6939999999998 7.437693411487418
2.199999999999999 462.3392000000005 8.181723777051166
2.299999999999999 460.2854000000005 8.480114337624201
2.399999999999999 458.74820000000045 8.465103350505249
2.499999999999999 456.26319999999987 9.120126230621077
2.599999999999999 454.75399999999956 8.771998173275698
2.6999999999999993 452.7674 8.869821360713601
2.7999999999999994 450.6772000000003 9.920757107276739
2.8999999999999995 448.3041999999999 9.85758765593262
2.9999999999999996 447.24440000000016 9.91864951736117
3.0999999999999996 445.14160000000004 10.020293195097434
3.1999999999999997 443.0094000000005 10.464382205124936
3.3 441.6738 10.52826661696777
3.4 439.14680000000004 10.632835320221393
3.5 437.5564000000003 11.716901673429929
3.6 435.61040000000037 11.286717939323289
3.7 434.77880000000005 11.583296738119241
3.8000000000000003 433.25700000000023 11.423309634383674
3.9000000000000004 431.22840000000036 12.188860560436373
4.0 429.8690000000006 11.665975054575323
