# Rounds: 100, repetitions: 1000
# Good arm ~ N(5.0,0.0), 4 bad arm(s) ~ N(2.2,0.0)
# Observation noise range from 0.5 to 4.0 with step size 0.1

# Observation noise | mean | standard deviation

0.5 491.2632 4.472745377417664
0.6 490.8123999999999 5.069306077177064
0.7 490.79280000000006 5.208289012183799
0.7999999999999999 490.15440000000024 5.748537755492789
0.8999999999999999 489.89400000000006 5.35424990003198
0.9999999999999999 489.0344000000001 5.718699166782586
1.0999999999999999 487.8387999999999 5.840339384327293
1.1999999999999997 486.44999999999976 6.072242759650843
1.2999999999999996 484.9435999999996 5.9679909480457525
1.3999999999999995 483.09839999999997 6.310503933910467
1.4999999999999993 481.2616000000002 6.1206067728017945
1.5999999999999992 479.3716000000001 6.5023837501669135
1.699999999999999 477.9352000000002 6.38844998831902
1.799999999999999 475.75400000000036 7.059850245259134
1.8999999999999988 474.4968000000003 6.149546868403093
1.9999999999999987 471.4139999999995 7.093120354001926
2.0999999999999988 469.80119999999965 7.126226326862038
2.199999999999999 467.6788000000001 7.153595213910598
2.299999999999999 465.75519999999995 7.714665840399636
2.399999999999999 463.24920000000037 7.918148548520441
2.499999999999999 460.74039999999997 7.882721937576214
2.599999999999999 458.41080000000005 8.645705962591592
2.6999999999999993 455.7480000000001 8.767042661983385
2.7999999999999994 453.78240000000005 9.099481897933009
2.8999999999999995 451.7019999999992 9.407776690709813
2.9999999999999996 449.4592000000006 9.21022277491504
3.0999999999999996 446.34839999999997 10.113093102117295
3.1999999999999997 444.35760000000016 9.79731134289143
3.3 441.3168000000003 10.51420116728731
3.4 438.5924000000001 11.276434730012012
3.5 435.29679999999973 11.277079510329004
3.6 433.69240000000013 11.574537232742903
3.7 430.83360000000005 11.707663320253973
3.8000000000000003 426.98919999999924 12.396533281421748
3.9000000000000004 424.76599999999996 12.69500717633539
4.0 421.8484000000001 12.98871372092419
