# Rounds: 100, repetitions: 1000
# Good arm ~ N(5.0,0.0), 4 bad arm(s) ~ N(4.1,0.0)
# Observation noise range from 0.5 to 4.0 with step size 0.1

# Observation noise | mean | standard deviation

0.5 493.8840999999999 6.018067324675294
0.6 492.63669999999996 5.4157301671375295
0.7 490.47220000000016 5.4993736252659335
0.7999999999999999 488.5129000000003 5.242851426569451
0.8999999999999999 486.46270000000015 5.114573058190468
0.9999999999999999 484.79050000000024 4.937553968230572
1.0999999999999999 482.5998999999998 5.432834037192363
1.1999999999999997 480.49300000000034 5.739556909162413
1.2999999999999996 478.58590000000004 5.544844135454743
1.3999999999999995 476.2684 6.057844411910827
1.4999999999999993 474.85000000000105 5.97576185349866
1.5999999999999992 472.96809999999994 6.409519040015764
1.699999999999999 470.7946000000001 6.3642135456043905
1.799999999999999 468.9136000000004 6.595747032665753
1.8999999999999988 467.4006999999999 7.433994470255129
1.9999999999999987 465.75370000000015 6.773071741153414
2.0999999999999988 464.2057000000004 7.037240955819986
2.199999999999999 462.26979999999986 7.370697058971771
2.299999999999999 461.35360000000026 7.5486521438724
2.399999999999999 460.15030000000013 7.478136294052953
2.499999999999999 459.01270000000005 7.579074553075789
2.599999999999999 457.63749999999965 7.659777800037404
2.6999999999999993 455.88969999999983 7.788427537925304
2.7999999999999994 454.47130000000044 8.0240458387039
2.8999999999999995 453.9961000000004 7.540096009855415
2.9999999999999996 452.8045000000003 8.082462245253323
3.0999999999999996 451.73620000000005 8.07613481273767
3.1999999999999997 450.6742000000006 8.251631583134543
3.3 449.8183000000002 8.486095033578065
3.4 449.7157000000002 7.9166265850099435
3.5 448.2424000000006 8.174675991595455
3.6 448.14340000000055 8.137487028262141
3.7 446.9167000000002 8.159522591360263
3.8000000000000003 445.7314000000004 7.970419162228615
3.9000000000000004 444.8125000000012 8.117317573841387
4.0 444.79269999999997 7.785662029862506
