# Rounds: 100, repetitions: 1000
# Good arm ~ N(5.0,0.0), 4 bad arm(s) ~ N(1.9,0.0)
# Observation noise range from 0.5 to 4.0 with step size 0.1

# Observation noise | mean | standard deviation

0.5 490.56019999999984 3.8452180252440757
0.6 490.3742000000002 4.170953273678715
0.7 490.2037000000003 4.697054250126213
0.7999999999999999 489.55579999999986 5.537529285754678
0.8999999999999999 489.29540000000026 5.335789490739817
0.9999999999999999 488.7343 5.341507766091438
1.0999999999999999 487.6152000000005 6.098580297220166
1.1999999999999997 486.6355999999998 6.020704404097716
1.2999999999999996 485.0236000000004 6.14143470699316
1.3999999999999995 483.49219999999974 5.993426425703439
1.4999999999999993 481.6167000000002 6.065218708998712
1.5999999999999992 479.9798999999999 6.095127280587877
1.699999999999999 477.9928000000001 6.8241568913146695
1.799999999999999 476.32190000000054 6.611470481816602
1.8999999999999988 474.11160000000035 6.928829202261682
1.9999999999999987 472.58019999999976 6.805227334856571
2.0999999999999988 470.5869000000001 7.213223203185889
2.199999999999999 468.3549000000003 7.0323587835135415
2.299999999999999 466.1073999999999 7.533567540009162
2.399999999999999 464.0117999999995 7.723246033196775
2.499999999999999 461.53180000000003 8.252408800526757
2.599999999999999 459.3897 8.203958120251404
2.6999999999999993 457.3281999999995 8.28126706151564
2.7999999999999994 454.68389999999965 8.911571516679704
2.8999999999999995 451.66140000000024 9.712146819104188
2.9999999999999996 448.44050000000055 9.778977356970808
3.0999999999999996 446.9710999999998 10.030072639176007
3.1999999999999997 444.4042999999998 9.940358254722641
3.3 442.15989999999977 10.737621641150739
3.4 438.9452000000003 11.033476086644445
3.5 436.1459000000001 11.020976595343772
3.6 433.3062999999999 11.495367492332898
3.7 430.7798 11.716573306647732
3.8000000000000003 427.84410000000037 12.441310678598176
3.9000000000000004 424.6697000000001 13.04401618629278
4.0 422.72909999999996 12.49601030183089
