# Rounds: 100, repetitions: 1000
# Good arm ~ N(5.0,0.0), 4 bad arm(s) ~ N(0.1,0.0)
# Observation noise range from 0.5 to 4.0 with step size 0.1

# Observation noise | mean | standard deviation

0.5 484.77279999999996 2.419726272791044
0.6 484.64540000000017 2.548728085703682
0.7 484.6258000000001 2.4267681313969116
0.7999999999999999 484.2926 3.0886380372139697
0.8999999999999999 484.37100000000004 2.8243399044548347
0.9999999999999999 483.9544999999994 3.7973437518309163
1.0999999999999999 483.93489999999974 3.621180047296004
1.1999999999999997 483.5477999999997 4.028121264425966
1.2999999999999996 483.1802999999997 4.427950841942402
1.3999999999999995 482.6511000000005 4.610075008238077
1.4999999999999993 481.6319000000003 5.40969289028195
1.5999999999999992 480.61759999999964 5.6822441111006645
1.699999999999999 479.5150999999996 6.0094521801496406
1.799999999999999 477.5404 6.851488212843285
1.8999999999999988 475.69799999999947 6.525235221407307
1.9999999999999987 473.6743000000003 7.118777036577022
2.0999999999999988 471.7289999999999 7.188238293891599
2.199999999999999 469.6611999999997 7.796372103611934
2.299999999999999 467.4561999999997 7.466799492061831
2.399999999999999 465.4766000000005 7.940827991411818
2.499999999999999 462.7423999999999 8.180815851000913
2.599999999999999 460.4295999999999 8.607655637603996
2.6999999999999993 458.2098999999997 8.631098878929471
2.7999999999999994 455.94120000000026 8.553136190819057
2.8999999999999995 453.6578000000007 9.020399479333854
2.9999999999999996 450.81579999999957 9.446143127222877
3.0999999999999996 448.67449999999974 9.360955466042872
3.1999999999999997 445.63649999999996 9.7456192643077
3.3 443.2893999999998 10.143650293719773
3.4 440.1632000000004 10.466678418539306
3.5 437.0762 10.939122357756055
3.6 434.9300000000003 11.08214392227043
3.7 431.10310000000015 11.371616157962974
3.8000000000000003 428.47669999999954 11.994798969232995
3.9000000000000004 425.40439999999995 12.4047183634969
4.0 422.2585999999996 11.848328528907716
