# Rounds: 100, repetitions: 1000
# Good arm ~ N(5.0,0.0), 4 bad arm(s) ~ N(1.1,0.0)
# Observation noise range from 0.5 to 4.0 with step size 0.1

# Observation noise | mean | standard deviation

0.5 488.1012999999997 2.9616582736247126
0.6 487.8906999999997 3.309147014558865
0.7 487.7502999999998 3.956338272003877
0.7999999999999999 487.4578 4.13679734241986
0.8999999999999999 487.2861999999997 4.320847055761097
0.9999999999999999 487.0677999999999 4.820759575303735
1.0999999999999999 486.84940000000023 4.842640892200313
1.1999999999999997 486.2566000000002 4.731450418535822
1.2999999999999996 485.1021999999999 5.506586752032284
1.3999999999999995 484.0609000000001 5.541374199421782
1.4999999999999993 482.59839999999986 6.115571735958772
1.5999999999999992 480.95650000000086 6.057174846173519
1.699999999999999 479.1663999999999 6.640915056887336
1.799999999999999 477.06820000000045 6.607740233316595
1.8999999999999988 475.1884000000003 6.53068720084768
1.9999999999999987 473.46459999999996 6.67062996606346
2.0999999999999988 471.1791999999995 7.075794954224879
2.199999999999999 469.31500000000034 7.380260377740289
2.299999999999999 467.4273999999997 7.058158885066728
2.399999999999999 464.7208 7.463257168794854
2.499999999999999 462.5563000000004 7.898258212592966
2.599999999999999 460.0525000000005 8.107589454132231
2.6999999999999993 458.43400000000065 8.127306879718319
2.7999999999999994 456.00039999999984 8.308411975194158
2.8999999999999995 453.2586999999998 9.172251332388624
2.9999999999999996 450.3805000000003 8.966829639498195
3.0999999999999996 448.54749999999956 9.612887253648148
3.1999999999999997 445.3534000000001 9.682473792308375
3.3 442.41280000000023 9.790474429237307
3.4 440.17419999999987 10.31113543087637
3.5 436.6447000000001 11.503328147474038
3.6 434.4333999999999 11.6922963627439
3.7 431.34849999999983 11.482465970982652
3.8000000000000003 428.3961999999998 11.70574773733355
3.9000000000000004 425.20989999999983 12.518101887461405
4.0 422.4291999999999 12.701685721989014
