# Rounds: 100, repetitions: 1000
# Good arm ~ N(5.0,1.0), 4 bad arm(s) ~ N(3.1,1.0)
# Observation noise range from 0.5 to 4.0 with step size 0.1

# Observation noise | mean | standard deviation

0.5 490.26098477842174 14.991051492750833
0.6 489.03822121912395 13.860753410075286
0.7 488.1487440231924 14.24835914847962
0.7999999999999999 486.8460406433721 14.741144391015965
0.8999999999999999 486.24200625016744 13.784065794706757
0.9999999999999999 485.19908223252935 14.02816689758802
1.0999999999999999 482.8086694002889 13.938128634163741
1.1999999999999997 482.3855964513142 13.571626166008258
1.2999999999999996 480.08768845700007 13.99188899498887
1.3999999999999995 478.6919985943811 13.081702425693884
1.4999999999999993 476.18840233035155 13.779941790197531
1.5999999999999992 474.13076951853986 14.613640023769355
1.699999999999999 472.9023790827632 15.025009074119252
1.799999999999999 470.96851681876734 15.36971449674111
1.8999999999999988 468.7661782622742 14.753195313424825
1.9999999999999987 466.30537190439446 15.267561376523185
2.0999999999999988 464.6965511551308 15.688035207474414
2.199999999999999 461.7600708501018 16.754723229812882
2.299999999999999 459.5666122216837 16.957481656319267
2.399999999999999 458.46803418933285 16.742302392808813
2.499999999999999 455.75578737686703 17.48213620005173
2.599999999999999 453.98072355318186 17.9236704716222
2.6999999999999993 452.58483673157014 17.6640869983221
2.7999999999999994 449.53937025832755 17.124445031815867
2.8999999999999995 447.0841191815895 18.02556488388725
2.9999999999999996 444.08154001146085 17.865801749196216
3.0999999999999996 442.2637035884701 18.4139556200961
3.1999999999999997 440.5275178005162 19.16470092726253
3.3 437.14048609525435 20.109904464698797
3.4 435.13706794718536 18.784705345077874
3.5 433.66218563258195 19.328790060685126
3.6 430.7869675252147 19.566795816185245
3.7 430.1512852030294 19.157224818651066
3.8000000000000003 426.62096570047686 20.493877263002787
3.9000000000000004 425.5163449395944 20.54468654137944
4.0 422.17462890369046 20.36196448535637
