# Rounds: 100, repetitions: 1000
# Good arm ~ N(5.0,1.0), 4 bad arm(s) ~ N(1.2,1.0)
# Observation noise range from 0.5 to 4.0 with step size 0.1

# Observation noise | mean | standard deviation

0.5 487.10844285041657 11.19187153967562
0.6 486.9959544356963 10.529322513435007
0.7 487.0999928556061 11.295518432392864
0.7999999999999999 486.5183969250574 11.097471365601168
0.8999999999999999 486.12792911242747 11.049843708342983
0.9999999999999999 485.2243420837673 11.568049476186923
1.0999999999999999 484.9540224215627 11.54111848223978
1.1999999999999997 484.13350254322773 11.289409444191207
1.2999999999999996 482.86508060497664 11.389552900083507
1.3999999999999995 481.55735824579887 12.199622030145386
1.4999999999999993 480.626436818402 12.324358548321253
1.5999999999999992 478.6317644280665 12.468345605379772
1.699999999999999 477.02441283148113 13.046943745687585
1.799999999999999 475.7949097652856 12.77731788472015
1.8999999999999988 473.6440533565092 13.494482700538782
1.9999999999999987 471.88977565200327 12.625817886378833
2.0999999999999988 468.9344316448437 13.705035618534813
2.199999999999999 468.0637066558716 13.13623979169711
2.299999999999999 466.32376884663944 14.098692058224222
2.399999999999999 463.0313649167577 14.301099274140427
2.499999999999999 461.40190537268614 15.316175067769802
2.599999999999999 458.98482914782255 14.151800496964679
2.6999999999999993 456.9109203825215 14.892023756195739
2.7999999999999994 453.9893879971359 15.61295637615884
2.8999999999999995 451.1842401806399 15.978818541437617
2.9999999999999996 449.6792650792671 15.132274817774862
3.0999999999999996 446.6501988666973 15.662043886434068
3.1999999999999997 444.25024371013967 16.6823865098209
3.3 441.29464345186165 16.47904275088939
3.4 438.5432788665371 17.9658277957641
3.5 435.8725540959805 17.650532665368893
3.6 432.7304713536053 17.148932358271402
3.7 430.65968646141476 18.01495176914468
3.8000000000000003 426.8655304406967 18.38773339759454
3.9000000000000004 424.21468129129767 18.5318792415818
4.0 422.33262434752294 19.065379923116254
