# Rounds: 100, repetitions: 1000
# Good arm ~ N(5.0,0.0), 4 bad arm(s) ~ N(4.2,0.0)
# Observation noise range from 0.5 to 4.0 with step size 0.1

# Observation noise | mean | standard deviation

0.5 493.84239999999966 5.271484685626108
0.6 492.06240000000014 5.195603963019171
0.7 490.3015999999997 4.615324328653255
0.7999999999999999 488.09760000000006 4.978825458172141
0.8999999999999999 486.29999999999956 4.840825714027878
0.9999999999999999 484.2535999999997 4.688358747765328
1.0999999999999999 482.21680000000043 5.076681046751947
1.1999999999999997 480.0023999999996 5.35275688278913
1.2999999999999996 478.33760000000007 5.569797921728312
1.3999999999999995 476.4463999999996 5.481493757527612
1.4999999999999993 474.56319999999994 5.766209754677268
1.5999999999999992 472.7408 5.734410067201253
1.699999999999999 470.95040000000023 6.221955687127074
1.799999999999999 469.9488000000002 6.184634853268917
1.8999999999999988 467.9719999999998 6.5444056449188475
1.9999999999999987 466.4311999999998 6.9268844575529585
2.0999999999999988 465.0135999999998 6.880776127743201
2.199999999999999 463.87279999999964 6.9020184017444
2.299999999999999 462.6983999999996 6.626128811230851
2.399999999999999 461.3279999999995 7.083334640522797
2.499999999999999 460.5519999999999 6.846974299430189
2.599999999999999 459.432 7.364222142749932
2.6999999999999993 458.3207999999997 7.0237212373513715
2.7999999999999994 457.4919999999994 7.2573304213633225
2.8999999999999995 456.6231999999995 7.342910873768046
2.9999999999999996 455.59039999999925 7.021082782836568
3.0999999999999996 454.9199999999994 6.967161641683225
3.1999999999999997 454.21519999999924 7.208031956414006
3.3 453.4351999999991 7.127072057732882
3.4 452.6583999999998 7.065801794205375
3.5 452.2095999999999 7.165699902667973
3.6 451.9471999999995 7.364384993081716
3.7 450.75759999999997 7.2445818517156075
3.8000000000000003 450.4207999999999 7.10347145180914
3.9000000000000004 449.8311999999996 7.122999626820485
4.0 449.2863999999996 7.125353724953335
