# Rounds: 100, repetitions: 1000
# Good arm ~ N(5.0,1.0), 4 bad arm(s) ~ N(0.4,1.0)
# Observation noise range from 0.5 to 4.0 with step size 0.1

# Observation noise | mean | standard deviation

0.5 484.86775125725535 10.632095063922995
0.6 485.06453085600185 10.565300012460037
0.7 484.80677999828004 10.280677189133963
0.7999999999999999 484.62175479972984 10.642721664005864
0.8999999999999999 484.57859075865514 10.684835118760718
0.9999999999999999 483.77543077667957 10.794123901295404
1.0999999999999999 483.419885656176 11.330188027680032
1.1999999999999997 483.2750475172971 11.79855993180671
1.2999999999999996 482.74294978526495 11.47532313936503
1.3999999999999995 480.94111315292685 11.514848784906754
1.4999999999999993 480.7875044148263 11.782995329351238
1.5999999999999992 479.03294179674555 12.331236223582458
1.699999999999999 477.57512988640633 11.878113995043742
1.799999999999999 476.3188472485155 12.650911692056683
1.8999999999999988 474.5734833608685 12.823441906818744
1.9999999999999987 472.2041712321101 12.847543519656424
2.0999999999999988 470.81105036332605 13.206629049169653
2.199999999999999 468.2545864339312 13.931436350037144
2.299999999999999 466.9043060139017 13.305467875798879
2.399999999999999 464.0822358249441 13.80802793086224
2.499999999999999 461.0818342281511 14.121889975635664
2.599999999999999 459.1710675253557 14.153643267950066
2.6999999999999993 456.87752831052967 14.543867523636022
2.7999999999999994 454.72541046058075 15.33925015306885
2.8999999999999995 452.50345976703153 14.857853938622164
2.9999999999999996 450.0027225301733 15.49301447010765
3.0999999999999996 447.158087674569 15.539663482909226
3.1999999999999997 444.5659172112274 15.71614094998163
3.3 442.2569688949827 16.130137507269207
3.4 440.081969495066 16.71327272014289
3.5 437.54732148239424 17.247643203673245
3.6 433.5714501320256 16.667997636698196
3.7 429.00253430257766 17.444257510467153
3.8000000000000003 426.87059657409355 17.41104601528195
3.9000000000000004 424.35410369015557 18.69106334748282
4.0 421.7029804964015 18.414827690188964
