# Rounds: 100, repetitions: 1000
# Good arm ~ N(5.0,1.0), 4 bad arm(s) ~ N(2.4,1.0)
# Observation noise range from 0.5 to 4.0 with step size 0.1

# Observation noise | mean | standard deviation

0.5 489.73125358508094 11.702660949994792
0.6 488.5174075346397 12.004909918801125
0.7 488.566296921948 12.280222255427256
0.7999999999999999 487.9440179778482 11.90732667179164
0.8999999999999999 486.5069575357838 12.476641495793418
0.9999999999999999 485.75563496826254 11.74731688812989
1.0999999999999999 485.35496771329105 12.212135708955014
1.1999999999999997 482.939342826417 12.686480649424528
1.2999999999999996 482.16452613693184 12.954414783879589
1.3999999999999995 480.07190971188385 13.273109729362861
1.4999999999999993 479.0519856178064 12.568137310260283
1.5999999999999992 477.77387197652 13.204827751534026
1.699999999999999 475.608470564557 13.596299950723793
1.799999999999999 473.0820492910369 13.744924736094571
1.8999999999999988 470.8715243663809 13.761908249822284
1.9999999999999987 469.84827966510375 14.292219684146039
2.0999999999999988 467.71968439474233 14.230923571767619
2.199999999999999 465.34759741026016 14.266011454586671
2.299999999999999 463.22870728301325 14.85151981145696
2.399999999999999 460.9913820802343 15.47161450631487
2.499999999999999 458.8242378118171 15.94253531900853
2.599999999999999 456.19850700376446 16.43730919459524
2.6999999999999993 454.29409176024313 16.232304336270808
2.7999999999999994 450.3383845675777 16.41884805762467
2.8999999999999995 449.2148076471397 16.194302091791887
2.9999999999999996 446.02179413893793 16.816042153130482
3.0999999999999996 443.5755377259146 17.327224349209175
3.1999999999999997 441.8795545413013 17.37356197274885
3.3 439.3688355920482 18.873240857104616
3.4 437.697357745113 17.75261982056296
3.5 433.7732962486202 19.644282801206575
3.6 431.49235320336635 18.695848233075505
3.7 428.6266008194413 20.365827992611273
3.8000000000000003 425.4619981384967 19.762294658300544
3.9000000000000004 423.93726448008715 20.73779729218689
4.0 420.6682464655757 20.129210997717088
