# Rounds: 10000, repetitions: 1000
# Good arm ~ N(5.0,1.0), 16 bad arm(s) ~ N(3.0,1.0)
# Observation noise range from 0.5 to 8.0 with step size 0.1

# Observation noise | mean | standard deviation

0.5 49948.989042318804 125.09001714213787
0.6 49941.68382007961 105.61007451764328
0.7 49927.73192626924 102.13833069232372
0.7999999999999999 49914.384289011934 103.421357248383
0.8999999999999999 49894.56975213387 100.62133567161212
0.9999999999999999 49885.12510109263 102.0804236995212
1.0999999999999999 49868.64726427368 99.26404752021183
1.1999999999999997 49852.913816430475 103.94594138809177
1.2999999999999996 49827.302996632854 99.47084814157166
1.3999999999999995 49802.58946313349 101.167012750474
1.4999999999999993 49781.97122079342 104.81824019616721
1.5999999999999992 49761.705728398985 105.06705110751592
1.699999999999999 49733.927884564 99.62132769611492
1.799999999999999 49707.1633923117 100.91728364023177
1.8999999999999988 49677.42120391233 102.40425262383582
1.9999999999999987 49654.49949361163 101.79108929722764
2.0999999999999988 49615.36421088703 105.1577152547389
2.199999999999999 49583.53755893149 104.99980137040731
2.299999999999999 49561.43364841331 104.20778938953981
2.399999999999999 49539.85790109778 106.16720827984389
2.499999999999999 49496.24850806456 107.84524249219194
2.599999999999999 49464.11461605919 106.58148890202462
2.6999999999999993 49428.17609510325 105.0640216113829
2.7999999999999994 49394.50404365117 101.07771095402319
2.8999999999999995 49358.67339158832 105.04580711305663
2.9999999999999996 49330.71632303873 106.98128019776831
3.0999999999999996 49291.79761750592 109.39503572431052
3.1999999999999997 49256.00376990893 108.07685714926828
3.3 49215.60301540982 108.78634165306728
3.4 49176.300561774646 107.35380644307607
3.5 49134.15197177998 106.5782043788172
3.6 49092.96367608611 106.30864653110716
3.7 49056.53944300039 110.2850969086708
3.8000000000000003 49016.27147005284 117.01839670520928
3.9000000000000004 48979.12851578024 107.60850369492262
4.0 48929.924839613974 109.94131391245413
4.1 48896.68482382772 112.30494398021942
4.199999999999999 48848.06754935302 112.62853699315055
4.299999999999999 48804.83508756704 111.43686630795231
4.399999999999999 48762.2941402841 114.3931945367888
4.499999999999998 48709.54667651151 113.60760933544667
4.599999999999998 48675.476536978626 110.43371120702692
4.6999999999999975 48629.73849510063 117.9712471255639
4.799999999999997 48584.96600273959 118.14241921680146
4.899999999999997 48535.3636701606 116.66329589725699
4.9999999999999964 48492.86194290206 110.2966446417222
5.099999999999996 48448.32147398771 115.22181423376118
5.199999999999996 48393.702595164286 118.33548181205515
5.299999999999995 48345.10268841085 116.7482500099774
5.399999999999995 48303.18679917505 118.22778111980473
5.499999999999995 48249.890010401294 117.7368026073098
5.599999999999994 48202.91678751923 112.93779586361241
5.699999999999994 48155.33783909883 116.87609700923488
5.799999999999994 48107.01869048436 123.46221763496212
5.899999999999993 48054.34691599315 121.37373153667704
5.999999999999993 48006.217179107574 118.25737363270312
6.0999999999999925 47957.07014259436 123.00599827545327
6.199999999999992 47910.736058242925 120.57573343191258
6.299999999999992 47854.82667682917 123.66538487281689
6.3999999999999915 47813.20323983649 121.88493004027983
6.499999999999991 47754.43871792634 119.636393240064
6.599999999999991 47705.541893689915 127.12577738429879
6.69999999999999 47649.18202616568 123.07646888981776
6.79999999999999 47600.68840139888 127.81055027616337
6.89999999999999 47560.20620159212 121.9901580021997
6.999999999999989 47496.312129114325 125.8602866612291
7.099999999999989 47441.76372394009 131.4639833780765
7.199999999999989 47395.37850843548 130.47179133270922
7.299999999999988 47331.698826477135 131.1006269042133
7.399999999999988 47282.32096149243 127.4406055804707
7.499999999999988 47228.83309534599 128.37303012816668
7.599999999999987 47173.617983064294 129.15550225865854
7.699999999999987 47122.47331521235 133.21362683842082
7.7999999999999865 47068.174781364854 132.23085826803919
7.899999999999986 47013.91312619975 135.35569535099938
7.999999999999986 46953.770068570695 134.93888098556477
