# Rounds: 10000, repetitions: 1000
# Good arm ~ N(5.0,1.0), 16 bad arm(s) ~ N(1.0,1.0)
# Observation noise range from 0.5 to 8.0 with step size 0.1

# Observation noise | mean | standard deviation

0.5 49936.62714897683 96.21910478796471
0.6 49928.38655748287 103.90985786577792
0.7 49934.438126004155 99.2069937823799
0.7999999999999999 49933.16187026128 98.06368995470746
0.8999999999999999 49921.93896897016 96.50683616786685
0.9999999999999999 49915.021506208715 98.39135980328315
1.0999999999999999 49905.19009186148 99.22846715081799
1.1999999999999997 49891.732091631944 98.6311351542251
1.2999999999999996 49884.61164977528 103.52005263944868
1.3999999999999995 49869.99028781535 101.38150821717967
1.4999999999999993 49854.165629173265 101.21110792594561
1.5999999999999992 49837.190617156455 98.98252652250466
1.699999999999999 49826.542339157335 100.21246059226829
1.799999999999999 49805.83380823487 102.65082217262211
1.8999999999999988 49786.30413249422 100.44611225009352
1.9999999999999987 49779.36041623603 101.41978855710146
2.0999999999999988 49752.60324007799 102.08545441608392
2.199999999999999 49736.50366328301 98.65967117106334
2.299999999999999 49718.88560348061 101.13011977525933
2.399999999999999 49700.76183974306 104.83449634641507
2.499999999999999 49670.76729590999 103.3515166656552
2.599999999999999 49653.23151094303 102.10793392987325
2.6999999999999993 49633.49741990108 101.3291847925615
2.7999999999999994 49606.04481123952 103.37782684028228
2.8999999999999995 49585.63000119701 97.3193416590715
2.9999999999999996 49556.81074846443 103.3653265672541
3.0999999999999996 49539.565829707615 102.62398435843859
3.1999999999999997 49509.05306781191 103.94865782182664
3.3 49492.65141442956 107.49585290318826
3.4 49462.04732736369 102.06750357976262
3.5 49436.82482030062 100.45111411480313
3.6 49403.01421798656 108.72256446042772
3.7 49379.86293407791 106.66419802488852
3.8000000000000003 49355.33234958624 102.70297923915817
3.9000000000000004 49325.06973780036 103.7260285414355
4.0 49298.191952471134 106.42536839819206
4.1 49264.881904431066 105.77543260472777
4.199999999999999 49236.335268935596 104.09917918033709
4.299999999999999 49207.69756091063 104.896991305692
4.399999999999999 49178.72080335825 105.68664746650607
4.499999999999998 49142.77169556117 103.6686871390476
4.599999999999998 49115.408939014014 103.84254516443991
4.6999999999999975 49080.573143921276 111.01565963385794
4.799999999999997 49049.89678755967 108.44872937048682
4.899999999999997 49020.34590076533 110.80498140838209
4.9999999999999964 48992.3664613441 108.64510193573119
5.099999999999996 48953.167075590376 110.23114234102215
5.199999999999996 48920.20250497235 112.31105056305724
5.299999999999995 48881.632168567 106.66722083732459
5.399999999999995 48850.23940298614 110.36927159760906
5.499999999999995 48819.92046158633 107.96819938001036
5.599999999999994 48783.81969115412 103.89435621665564
5.699999999999994 48756.25909405183 106.54579645558715
5.799999999999994 48714.51307260398 110.40898748817517
5.899999999999993 48679.17552123898 113.21782851031075
5.999999999999993 48638.02485548452 107.09206872751712
6.0999999999999925 48598.61035920565 108.81068079166882
6.199999999999992 48570.27510643536 112.86515429822168
6.299999999999992 48527.6423471994 110.89362846087866
6.3999999999999915 48496.149929623156 110.61703085486816
6.499999999999991 48454.26142891312 112.66100729180323
6.599999999999991 48415.57713015065 114.76497280353747
6.69999999999999 48372.8780884841 114.42506925407514
6.79999999999999 48342.045261084466 111.66325221945334
6.89999999999999 48299.18608624864 111.21583017416502
6.999999999999989 48259.57861840901 112.65481399630669
7.099999999999989 48213.34080286922 114.83631046816178
7.199999999999989 48168.12792994463 114.67297106374932
7.299999999999988 48127.807962511644 111.0865437478835
7.399999999999988 48092.89572394434 115.17026883004179
7.499999999999988 48051.99025796236 114.19273735178561
7.599999999999987 48009.620770150344 109.72001737788506
7.699999999999987 47971.9678430869 115.49698753130926
7.7999999999999865 47927.95345658013 119.45197395977087
7.899999999999986 47882.49856106401 116.02618381846584
7.999999999999986 47840.749800602855 120.6292432464916
