# Rounds: 10000, repetitions: 1000
# Good arm ~ N(5.0,1.0), 16 bad arm(s) ~ N(0.5,1.0)
# Observation noise range from 0.5 to 8.0 with step size 0.1

# Observation noise | mean | standard deviation

0.5 49935.3742893263 100.2619165656876
0.6 49928.479703631114 99.838293337048
0.7 49929.736232384545 100.61555161996057
0.7999999999999999 49925.40209733773 100.47028656377962
0.8999999999999999 49920.88667794937 102.32466036573226
0.9999999999999999 49921.36898638288 100.35726485183642
1.0999999999999999 49907.01381421548 101.83562554862061
1.1999999999999997 49900.52811448982 105.1582882588909
1.2999999999999996 49879.60454403663 98.45523243229893
1.3999999999999995 49876.838081212874 94.64760836759525
1.4999999999999993 49861.027221904136 102.06181911579081
1.5999999999999992 49850.987483281206 102.21968398325984
1.699999999999999 49831.11823649611 104.1899124897352
1.799999999999999 49815.616763334925 100.25286705439491
1.8999999999999988 49794.78545828858 101.05002943428275
1.9999999999999987 49783.47002305342 106.73542642285175
2.0999999999999988 49768.96089673125 100.0022415957301
2.199999999999999 49748.80459947363 98.63909777902386
2.299999999999999 49736.11773497066 102.59061239831382
2.399999999999999 49710.98052403986 102.49177922196212
2.499999999999999 49691.373929703776 99.20389526529108
2.599999999999999 49670.93577689542 99.58147737181099
2.6999999999999993 49651.020687353346 103.21096241890052
2.7999999999999994 49629.935708897305 102.06417111637809
2.8999999999999995 49611.55785123745 105.06582475734398
2.9999999999999996 49589.18448083418 102.58108672668548
3.0999999999999996 49563.12958209199 102.13588587977162
3.1999999999999997 49538.003504832195 105.36545624522823
3.3 49510.485737902076 102.64877396933146
3.4 49491.90031105644 102.13802717795544
3.5 49467.08590161394 103.73946682085668
3.6 49436.00823314613 100.9440349746762
3.7 49413.419266183744 104.41610425605322
3.8000000000000003 49387.40506192797 102.41401527584917
3.9000000000000004 49360.186726265434 103.2866220080218
4.0 49335.80467892883 106.25737952894929
4.1 49305.809595350365 108.51690676385769
4.199999999999999 49277.16875407676 106.6620677173652
4.299999999999999 49249.23693564972 100.84215989043457
4.399999999999999 49218.60249608311 104.47922925763221
4.499999999999998 49190.74989519251 101.97573096788973
4.599999999999998 49161.95804023031 106.95572874085981
4.6999999999999975 49138.746377197764 101.60573278065623
4.799999999999997 49102.229981392535 103.40133515772234
4.899999999999997 49078.77829526136 106.18529086800544
4.9999999999999964 49038.25225649427 103.88144766177588
5.099999999999996 49017.77545276115 108.84013274208962
5.199999999999996 48978.04319789864 105.9826427604772
5.299999999999995 48944.55146147901 110.63010409753784
5.399999999999995 48908.6636398273 109.43903268133707
5.499999999999995 48879.07777731738 109.46702733209636
5.599999999999994 48847.205421103165 107.3864218240855
5.699999999999994 48814.97257564712 108.75440860184443
5.799999999999994 48778.93647786062 107.11913354633572
5.899999999999993 48750.4158710397 101.02053220497275
5.999999999999993 48709.839496474604 107.4916273265636
6.0999999999999925 48666.85010712741 112.71980749549466
6.199999999999992 48641.2182650836 108.4361397114012
6.299999999999992 48597.45858594587 108.61937479583078
6.3999999999999915 48561.861425461335 109.11318469310147
6.499999999999991 48528.22923998765 105.67865662973172
6.599999999999991 48493.0032544425 116.1793111505352
6.69999999999999 48457.29499003968 109.8169032822438
6.79999999999999 48408.5176595304 109.74533387311241
6.89999999999999 48381.73473257378 115.87255658428074
6.999999999999989 48344.86181664374 111.89054881678814
7.099999999999989 48302.83721827949 109.42622059437683
7.199999999999989 48265.08195573698 110.89436548376716
7.299999999999988 48226.40435994358 112.01555873620686
7.399999999999988 48185.42408925612 117.24804616765428
7.499999999999988 48141.81792092975 116.38973141914741
7.599999999999987 48100.76316598991 113.24448420621265
7.699999999999987 48064.68685833649 117.2124078046316
7.7999999999999865 48021.02211278788 114.20874261078977
7.899999999999986 47979.09728690614 113.51570568818272
7.999999999999986 47943.54459391645 117.17755063214186
