# Rounds: 10000, repetitions: 1000
# Good arm ~ N(5.0,2.0), 9 bad arm(s) ~ N(4.5,2.0)
# Observation noise range from 0.1 to 10.0 with step size 0.1

# Observation noise | mean | standard deviation

0.1 47039.720232416614 2448.5416578727827
0.2 47468.44489162799 2455.9357565559035
0.30000000000000004 47776.25664469426 2406.9155968094333
0.4000000000000001 48045.86049612768 2331.1309373169893
0.5000000000000001 48278.219237860685 2228.841184189215
0.6000000000000001 48536.370768369015 2093.3223769263836
0.7000000000000001 48815.99419157819 1897.474457283079
0.8 48957.22567251139 1764.4813445063653
0.9 49083.33465010474 1602.3586812003475
1.0 49294.12221343001 1305.1305956079316
1.1 49324.57255271958 1267.7603483619878
1.2000000000000002 49417.392708274674 1027.5425404107687
1.3000000000000003 49484.842182942426 894.1695642829425
1.4000000000000004 49519.259593460854 737.5321224007861
1.5000000000000004 49518.952397456706 708.3700131398101
1.6000000000000005 49545.444502346574 499.3028106511421
1.7000000000000006 49499.065185847954 521.1332720277977
1.8000000000000007 49481.12349337425 372.5500301560764
1.9000000000000008 49485.49167202643 369.7676551293544
2.000000000000001 49421.89733248069 314.78865020584027
2.100000000000001 49414.73658835106 283.82783943410016
2.200000000000001 49384.86182550695 291.4872990078846
2.300000000000001 49327.50062732307 348.554386941607
2.4000000000000012 49291.240488845964 264.129878224286
2.5000000000000013 49240.002861200126 298.3664695468363
2.6000000000000014 49208.30260648256 274.3025180065635
2.7000000000000015 49166.52633497282 260.4081279667839
2.8000000000000016 49123.36878526368 273.7752214929971
2.9000000000000017 49078.58539487663 286.03217834806514
3.0000000000000018 49018.99976174173 272.1880787137947
3.100000000000002 49000.85578302692 268.9673249168367
3.200000000000002 48939.57595441325 274.55544463154655
3.300000000000002 48897.67186408861 280.7796179773585
3.400000000000002 48866.27698947917 280.41874989362316
3.500000000000002 48811.98342171213 291.5948946214689
3.6000000000000023 48762.41895004044 278.52346378753595
3.7000000000000024 48733.89547589565 284.4766700477212
3.8000000000000025 48684.8032384353 282.4473553434527
3.9000000000000026 48643.03601959862 297.33034476738766
4.000000000000003 48584.02551260228 288.1727077104901
4.100000000000003 48531.62902634011 301.78369742493373
4.200000000000004 48493.543133238105 307.8262623486221
4.300000000000004 48461.62684615127 296.20357599298063
4.400000000000005 48418.96056794381 294.97449107987
4.500000000000005 48370.1726811143 303.22724058453866
4.600000000000006 48329.44506267588 300.87247456910495
4.700000000000006 48274.408648422104 305.3339519755895
4.800000000000007 48263.347312743965 321.0298803230994
4.9000000000000075 48204.641477237536 308.48760348199795
5.000000000000008 48169.99896807993 306.39844962897695
5.1000000000000085 48127.09723770862 321.18973153325464
5.200000000000009 48080.163795819666 306.581839555771
5.30000000000001 48018.70121639459 322.1754440152281
5.40000000000001 48007.21873047012 310.0378181905135
5.500000000000011 47971.91555439884 307.41157903301036
5.600000000000011 47920.2422815788 324.86530191950555
5.700000000000012 47873.0666983903 305.23540945671436
5.800000000000012 47848.177968855016 312.11580208120364
5.900000000000013 47816.27745863139 319.52996754945195
6.000000000000013 47768.39300909362 339.56764023043206
6.100000000000014 47744.92344032192 315.878417143975
6.200000000000014 47675.26262781834 324.6842736781405
6.300000000000015 47645.99248787465 328.6417849871267
6.4000000000000155 47625.408780025915 320.0052734537014
6.500000000000016 47583.56842541479 321.2141945740935
6.6000000000000165 47553.03977374537 320.7456893353648
6.700000000000017 47543.78788938726 316.2612143222629
6.800000000000018 47498.15342074304 307.2341269403414
6.900000000000018 47466.33147564894 317.2888377282142
7.000000000000019 47435.673816553295 325.718400298119
7.100000000000019 47417.68707565592 331.55436551481876
7.20000000000002 47361.9126229934 315.30783235193724
7.30000000000002 47334.47771457946 321.6118811020507
7.400000000000021 47312.30494459787 322.94957420032483
7.500000000000021 47284.98545126078 316.8602217349472
7.600000000000022 47249.20455494694 311.9476151435891
7.700000000000022 47235.88834735524 311.3539687003627
7.800000000000023 47208.547685693484 306.476547899024
7.9000000000000234 47173.01940348777 312.76938846566895
8.000000000000025 47152.31610909602 303.05070763039777
8.100000000000026 47122.973764213704 315.00784707222306
8.200000000000028 47100.51272269701 307.5089741704533
8.30000000000003 47066.31603066702 317.5692224536493
8.40000000000003 47046.41560470407 312.92644961338
8.500000000000032 47039.20202727767 307.44991157692846
8.600000000000033 47009.03148796409 308.94498942575456
8.700000000000035 47002.28736974374 302.14740258061215
8.800000000000036 46962.815512750494 308.3351349903923
8.900000000000038 46951.841655703465 294.4107584010618
9.000000000000039 46924.812110352934 301.83485896684766
9.10000000000004 46915.999604052515 302.5869284366984
9.200000000000042 46900.98857665094 289.1921872022203
9.300000000000043 46873.91955452757 293.3552840630203
9.400000000000045 46835.55475231287 298.2799782544418
9.500000000000046 46816.05071728151 291.7935602300465
9.600000000000048 46827.54708760878 294.4036565874263
9.700000000000049 46811.123904209926 300.40357016352425
9.80000000000005 46781.99498602543 288.05101511845334
9.900000000000052 46760.39879918514 299.2225197714251
10.000000000000053 46746.37257386003 295.87845698010176
