# Rounds: 100, repetitions: 1000
# Good arm ~ N(5.0,1.0), 16 bad arm(s) ~ N(0.5,1.0)
# Observation noise range from 0.5 to 8.0 with step size 0.1

# Observation noise | mean | standard deviation

0.5 431.73163635721306 10.86618839359859
0.6 431.91410130203747 10.950748423683853
0.7 431.49103921204005 10.98615977931782
0.7999999999999999 430.51956540188206 10.867130113588377
0.8999999999999999 429.2060999000205 12.066655242870144
0.9999999999999999 429.23696926465067 11.946533689211682
1.0999999999999999 427.713763724668 11.874709853121704
1.1999999999999997 426.49019016821876 13.09635901736304
1.2999999999999996 423.4960017915221 13.537602869377118
1.3999999999999995 420.1947855357176 14.757057283540192
1.4999999999999993 416.9591030903519 15.602428783571385
1.5999999999999992 412.38388857861196 17.34087980458567
1.699999999999999 406.5394213917046 17.782424418407565
1.799999999999999 401.3193024610067 18.25041894310198
1.8999999999999988 395.5444031435736 18.34973946882134
1.9999999999999987 389.50586984972364 19.96601636934311
2.0999999999999988 382.8541992267858 21.0688893089483
2.199999999999999 375.97274566795966 21.618814769947083
2.299999999999999 370.3792271814781 21.387124707227038
2.399999999999999 361.36481171596165 23.573279645943792
2.499999999999999 354.5384149241262 25.33297872767359
2.599999999999999 350.1030470102771 24.90669985193532
2.6999999999999993 339.10786206705757 26.134382497668422
2.7999999999999994 332.16137237924016 25.24343685032961
2.8999999999999995 325.9352291927754 26.73911084424146
2.9999999999999996 318.42042676319136 28.464993210427963
3.0999999999999996 309.6332835647454 27.724909882028086
3.1999999999999997 301.4771681441776 28.62937973248537
3.3 294.87509068332764 28.959364875484948
3.4 285.64186986649935 30.92291433085516
3.5 279.94792564546754 32.01763645674715
3.6 269.7022630738132 32.46515360497946
3.7 264.0529231541258 33.5450538981775
3.8000000000000003 255.53750527263844 32.8407961695438
3.9000000000000004 248.85589517339875 32.61844772527226
4.0 241.93730226147161 35.32090305287663
4.1 235.3448869823304 34.784358544156575
4.199999999999999 226.65555478791342 34.87155135796914
4.299999999999999 218.98474164238482 34.98179830657568
4.399999999999999 214.3430716531492 35.41043854626134
4.499999999999998 208.5777939674808 35.67574622580285
4.599999999999998 199.95585070174727 34.98518661673334
4.6999999999999975 195.02611411976443 34.39917705250495
4.799999999999997 187.37483126360377 35.91003579727358
4.899999999999997 185.6231812885504 34.7397423025182
4.9999999999999964 181.006095216697 35.911376088714334
5.099999999999996 175.6876031741166 34.07009454821892
5.199999999999996 170.02880953008523 35.155219456823
5.299999999999995 166.1033288462535 33.95842606410678
5.399999999999995 160.79170909942496 32.95549059848741
5.499999999999995 156.46559475441302 31.843405920071397
5.599999999999994 151.7075119147552 32.38340629417381
5.699999999999994 148.8377626886809 31.836854063025406
5.799999999999994 144.57287896513688 31.47548835583101
5.899999999999993 141.60000808792492 31.376828036108115
5.999999999999993 140.522146658858 30.596658077514803
6.0999999999999925 136.60690777828742 29.932285376189245
6.199999999999992 133.66240840288145 28.50336564415902
6.299999999999992 129.9449508878147 28.517479137189643
6.3999999999999915 126.93431870501755 27.97481706333516
6.499999999999991 124.0592831413982 28.368329104163397
6.599999999999991 123.44939175328646 26.393744660500754
6.69999999999999 123.16276964339662 27.0856058857901
6.79999999999999 119.19967354047296 25.43509700632811
6.89999999999999 119.53928483413289 26.19822413682249
6.999999999999989 115.30706251363083 24.22370455265268
7.099999999999989 115.47456779539259 24.932787599834857
7.199999999999989 113.36337617139533 24.7647009217585
7.299999999999988 111.96564934028426 23.933012112041357
7.399999999999988 110.38312758579983 24.410548353104954
7.499999999999988 109.23857083656738 22.74970809187804
7.599999999999987 108.96690130991047 24.595789748336742
7.699999999999987 105.48476877346741 21.756473856886945
7.7999999999999865 106.09246846912038 22.91262670725638
7.899999999999986 104.3184172023896 22.61536435534087
7.999999999999986 103.51355712657984 21.531916628432477
