# Rounds: 100, repetitions: 1000
# Good arm ~ N(5.0,1.0), 16 bad arm(s) ~ N(0.0,1.0)
# Observation noise range from 0.5 to 8.0 with step size 0.1

# Observation noise | mean | standard deviation

0.5 424.1553877566869 10.294944250396563
0.6 424.5848531095018 10.421885231942982
0.7 423.53753496456187 10.67171235266324
0.7999999999999999 422.9019911260901 11.612577769620387
0.8999999999999999 422.98750249800577 11.121999593324041
0.9999999999999999 422.5799734739506 11.425794545729756
1.0999999999999999 422.29492136402257 11.397554678653865
1.1999999999999997 420.3660257924061 12.033535823768485
1.2999999999999996 418.21002878610034 12.86459396197059
1.3999999999999995 416.18126547389903 14.296574965525306
1.4999999999999993 413.4553878750741 14.13184714224878
1.5999999999999992 409.20793599905846 14.777163496629429
1.699999999999999 405.5207682144085 16.46040982395023
1.799999999999999 400.9444977156163 18.007682350559634
1.8999999999999988 395.23252524243827 18.51322268382971
1.9999999999999987 388.8405356089559 19.620423574285002
2.0999999999999988 381.8101109845905 20.248110349987304
2.199999999999999 376.17297180851165 20.716345737512064
2.299999999999999 368.293757330678 21.70177026539719
2.399999999999999 360.9877038839325 22.271339423307733
2.499999999999999 352.7127312647255 23.92181364035764
2.599999999999999 346.4467360799637 23.467370714543122
2.6999999999999993 339.184503655769 25.26452298218935
2.7999999999999994 331.0778692850348 25.205542145877455
2.8999999999999995 321.68045826367324 26.701352786963447
2.9999999999999996 316.1684890111662 26.13033444856623
3.0999999999999996 306.11262827316244 26.781333280562652
3.1999999999999997 299.2523341886844 28.000620704860292
3.3 291.6252938751073 29.12684308009086
3.4 281.70183524638924 30.422453233720276
3.5 274.3957319942554 31.575984829984403
3.6 267.00065154202736 32.84121175547445
3.7 258.6496619111274 33.20099763431492
3.8000000000000003 251.33035435521916 34.089679506653724
3.9000000000000004 242.1184823286107 32.956113177005435
4.0 235.82235190883762 33.293885834886446
4.1 225.96024958501508 36.6637122671374
4.199999999999999 216.5066576726825 36.15038786432482
4.299999999999999 209.04243665181656 35.8177254893593
4.399999999999999 203.38477684581753 35.11414325197934
4.499999999999998 197.1132367652116 36.20760064075802
4.599999999999998 188.65939511983112 37.24595814897678
4.6999999999999975 179.71237099937022 38.2933099878242
4.799999999999997 175.65987893007724 37.13204260309791
4.899999999999997 165.5556053580721 37.03461338150461
4.9999999999999964 161.7611361393954 35.73334395584407
5.099999999999996 155.62383399336494 37.10579439007496
5.199999999999996 149.44987963735076 37.706139408673536
5.299999999999995 141.58162542869889 36.572580256578966
5.399999999999995 136.13120300125271 36.08328102531429
5.499999999999995 132.74388441570628 36.382509989894224
5.599999999999994 126.087302427116 37.159051320782936
5.699999999999994 123.23592941779066 35.3283957565294
5.799999999999994 117.30035720513014 34.267192157108965
5.899999999999993 112.95965958739302 34.50327611689802
5.999999999999993 110.07870947132348 33.484336366954
6.0999999999999925 106.97030506451269 33.700151841807575
6.199999999999992 103.2976115141457 32.90618894299897
6.299999999999992 98.88010867871981 31.94806272104495
6.3999999999999915 95.03053009669235 31.062221268246436
6.499999999999991 91.88211954231417 30.996480407092463
6.599999999999991 90.17836280568245 30.089801028449568
6.69999999999999 88.12397938294997 31.013680500755303
6.79999999999999 87.37393720999773 30.315611832703844
6.89999999999999 82.73179815589639 29.866082441567283
6.999999999999989 80.98982448091735 28.647370886368176
7.099999999999989 79.34025108906383 28.694204923145303
7.199999999999989 76.14903491621693 27.938293325456293
7.299999999999988 75.08720056119543 27.63798514683263
7.399999999999988 73.87143528183088 27.64558190356326
7.499999999999988 71.60010782748837 25.937674674168893
7.599999999999987 70.19491170091185 26.36193306681806
7.699999999999987 67.77736028228786 26.5610893154043
7.7999999999999865 66.86259227752358 25.596943522945907
7.899999999999986 65.16497355346493 24.344884012892816
7.999999999999986 65.02246103538918 25.8217318280847
