# Rounds: 100, repetitions: 1000
# Good arm ~ N(5.0,1.0), 16 bad arm(s) ~ N(1.0,1.0)
# Observation noise range from 0.5 to 8.0 with step size 0.1

# Observation noise | mean | standard deviation

0.5 439.133931057033 11.073244033032731
0.6 438.35731441597636 11.294623869845498
0.7 437.8262473975873 11.447282651961661
0.7999999999999999 436.96024942488987 12.143442544871379
0.8999999999999999 435.2615313100357 12.268063395735272
0.9999999999999999 434.5101458655167 12.792981878376743
1.0999999999999999 432.5827621555663 13.56299064741922
1.1999999999999997 428.81190428625735 14.325086029555907
1.2999999999999996 426.69581023539826 14.393989906895014
1.3999999999999995 422.66959478004395 16.30880389984066
1.4999999999999993 416.7073115656239 16.41241066277045
1.5999999999999992 413.5120304954989 17.744170596236273
1.699999999999999 407.8796818666228 17.7465729355664
1.799999999999999 402.5582999347532 18.950635112810183
1.8999999999999988 396.35091667669974 19.407137611766284
1.9999999999999987 389.50028621646896 20.760712517228793
2.0999999999999988 383.28045739792395 22.26000595071628
2.199999999999999 377.65571891039104 22.18123921421324
2.299999999999999 370.18221050018155 22.553099362505492
2.399999999999999 362.07563168605816 24.373767538863273
2.499999999999999 355.81566321500566 24.866432145787506
2.599999999999999 348.8940368818142 24.61661458828006
2.6999999999999993 340.2902583953987 25.71979672249943
2.7999999999999994 332.456084951102 27.91130907539106
2.8999999999999995 328.7748618761683 25.564352814346048
2.9999999999999996 320.160979085213 28.01777034651373
3.0999999999999996 312.4427839072076 28.046482228694856
3.1999999999999997 307.2573011570872 30.245443711296577
3.3 297.87816397471 29.442996028537042
3.4 290.334704378319 32.212370768259866
3.5 285.89330530008954 31.47212543977796
3.6 278.6914453535271 31.58703908765793
3.7 270.46164208060975 33.252521243890506
3.8000000000000003 264.3772956153705 32.21442846543573
3.9000000000000004 258.1436207282818 32.29999442786604
4.0 251.32989862164433 32.64843442465166
4.1 245.1732323663013 33.559146047968206
4.199999999999999 241.19371866238095 32.306059841590695
4.299999999999999 235.80744063808677 32.40673707382686
4.399999999999999 228.9923060515179 33.90917302152577
4.499999999999998 224.64795622551762 33.16799563106985
4.599999999999998 218.17412656929565 33.52766829959725
4.6999999999999975 214.04057145062768 32.062518031096005
4.799999999999997 209.5236714312238 31.306107602272192
4.899999999999997 203.50032691370077 31.09212795494156
4.9999999999999964 200.22433050424942 30.96088058980115
5.099999999999996 196.0928596737085 30.61010776053378
5.199999999999996 192.14695445292713 30.58298422085213
5.299999999999995 189.55196031026725 28.826038039719293
5.399999999999995 187.22598808097484 27.104135823538673
5.499999999999995 183.81494914933225 29.032031289109234
5.599999999999994 180.33391445989795 28.782924281597687
5.699999999999994 178.06691186749396 27.70808590931594
5.799999999999994 174.85731854106575 27.485607953699226
5.899999999999993 173.50541902829747 27.22277959433385
5.999999999999993 170.24982700421205 25.32419238891331
6.0999999999999925 168.17632013919032 26.806440296334276
6.199999999999992 166.553295379626 26.019010890984372
6.299999999999992 164.1801967082385 25.770977347104807
6.3999999999999915 162.72914333576722 25.115464720903574
6.499999999999991 160.78675145388715 23.488833455213765
6.599999999999991 158.79053125710226 24.01541303323302
6.69999999999999 158.00893561310028 22.519962115759068
6.79999999999999 156.37728096100736 22.621970888486185
6.89999999999999 155.4714666163813 22.92049435109272
6.999999999999989 153.90756490113262 22.377515449669122
7.099999999999989 152.48800093919223 22.061827906204268
7.199999999999989 151.07885316825994 21.63347514216116
7.299999999999988 150.83896914552562 20.755278627633633
7.399999999999988 149.2895687008485 20.947524706163048
7.499999999999988 148.4332433530797 20.69080498036537
7.599999999999987 147.58890899199645 20.763579027027383
7.699999999999987 146.67408026211186 20.29706744139875
7.7999999999999865 145.80554060044656 19.423624099437614
7.899999999999986 145.28179137346888 18.95927489855571
7.999999999999986 143.84821394239577 19.034298044012775
