# Rounds: 100, repetitions: 1000
# Good arm ~ N(5.0,0.0), 16 bad arm(s) ~ N(0.5,0.0)
# Observation noise range from 0.5 to 8.0 with step size 0.1

# Observation noise | mean | standard deviation

0.5 432.6264999999997 2.1408715704312997
0.6 432.4870000000006 2.453640428292523
0.7 432.3385000000003 2.9156764084717817
0.7999999999999999 432.28899999999976 2.7201798430210946
0.8999999999999999 432.1134999999998 3.375761175425984
0.9999999999999999 431.5285000000002 4.304470491967166
1.0999999999999999 431.0784999999997 5.251777691307859
1.1999999999999997 430.19650000000047 5.555988369026426
1.2999999999999996 428.68899999999974 7.512470713168601
1.3999999999999995 427.02849999999967 7.945002253669302
1.4999999999999993 423.75699999999995 9.232453042891088
1.5999999999999992 419.39649999999966 10.189890657981637
1.699999999999999 413.9425000000006 11.366536055100203
1.799999999999999 408.19600000000037 11.82803815036484
1.8999999999999988 401.6530000000002 13.597131056696215
1.9999999999999987 394.61050000000006 13.190167560356034
2.0999999999999988 388.08999999999975 13.087233308674506
2.199999999999999 380.67400000000015 13.790137486330329
2.299999999999999 374.77449999999976 14.472676259355364
2.399999999999999 366.2829999999998 14.858606569567346
2.499999999999999 358.24150000000003 16.406510943870785
2.599999999999999 352.7379999999999 16.076950093980003
2.6999999999999993 344.3769999999995 16.52661489839948
2.7999999999999994 336.7584999999995 18.359711510717105
2.8999999999999995 328.60900000000026 18.572427252625136
2.9999999999999996 320.968 18.72697721672322
3.0999999999999996 313.67799999999994 19.798517553021398
3.1999999999999997 306.9595 20.191441356526635
3.3 300.1780000000005 20.685749109380044
3.4 290.88100000000037 21.328167519262685
3.5 284.3064999999998 22.01465313609788
3.6 275.5899999999998 22.272088944370218
3.7 266.78799999999995 24.574172334911843
3.8000000000000003 259.4170000000004 24.62057643077808
3.9000000000000004 252.52299999999994 25.322019581298704
4.0 245.40400000000008 26.041802154602482
4.1 236.99800000000008 25.990459788160756
4.199999999999999 231.59799999999976 27.131236610224672
4.299999999999999 224.24950000000024 26.145517547714316
4.399999999999999 217.4275000000001 27.317938493113175
4.499999999999998 209.84500000000003 27.980652099118267
4.599999999999998 204.28750000000022 27.638976224830724
4.6999999999999975 197.22249999999983 28.31088571556886
4.799999999999997 193.14549999999994 28.929690747686127
4.899999999999997 187.73199999999994 28.135285146418358
4.9999999999999964 181.15749999999974 27.49758281760076
5.099999999999996 175.73949999999994 28.440706100825153
5.199999999999996 169.02549999999994 28.963891429791662
5.299999999999995 165.0880000000001 27.80216207808694
5.399999999999995 161.81200000000013 26.873692551477774
5.499999999999995 157.05549999999985 26.908990384507426
5.599999999999994 153.09100000000026 26.221198871719626
5.699999999999994 148.81149999999982 27.370428533512378
5.799999999999994 143.7175000000001 25.407134159842084
5.899999999999993 141.90399999999983 26.358234776641115
5.999999999999993 137.77749999999978 25.275632560854987
6.0999999999999925 136.6839999999998 24.436443763031154
6.199999999999992 132.94 24.504660339992057
6.299999999999992 130.68550000000005 23.551656423068636
6.3999999999999915 129.58750000000015 23.529326870375467
6.499999999999991 127.57149999999996 23.154389724488833
6.599999999999991 124.65100000000008 23.871070923337857
6.69999999999999 123.37749999999991 23.575199549182635
6.79999999999999 119.30049999999991 22.631363820556164
6.89999999999999 117.41499999999992 21.792525993771086
6.999999999999989 116.26299999999992 22.157759302269234
7.099999999999989 113.28849999999994 21.318430834450407
7.199999999999989 113.35599999999998 21.249948807569503
7.299999999999988 111.15100000000002 20.73457551100628
7.399999999999988 110.61100000000002 20.379757444913654
7.499999999999988 109.77400000000002 20.28233954200797
7.599999999999987 107.70399999999995 20.298643277788774
7.699999999999987 107.1775000000001 19.021134227413913
7.7999999999999865 106.04799999999992 19.71023057169016
7.899999999999986 104.37849999999995 18.790238444756643
7.999999999999986 104.09949999999995 18.859587317430464
