# Rounds: 100, repetitions: 1000
# Good arm ~ N(5.0,0.0), 16 bad arm(s) ~ N(3.0,0.0)
# Observation noise range from 0.5 to 8.0 with step size 0.1

# Observation noise | mean | standard deviation

0.5 469.4640000000007 6.177286043471111
0.6 468.1 7.643587143771232
0.7 466.0079999999999 7.553077848465771
0.7999999999999999 462.12999999999994 8.149694320495565
0.8999999999999999 456.81200000000035 8.874875741069207
0.9999999999999999 451.62200000000007 8.49525074881756
1.0999999999999999 445.6720000000002 9.036707258624583
1.1999999999999997 440.2379999999996 8.699139671888902
1.2999999999999996 434.7459999999995 9.47783273292545
1.3999999999999995 429.4920000000002 8.613950089020472
1.4999999999999993 423.7280000000002 10.002102681839364
1.5999999999999992 418.2740000000002 10.164853577314734
1.699999999999999 412.9759999999999 11.204506457892956
1.799999999999999 407.3680000000002 11.135374828562027
1.8999999999999988 402.45399999999995 11.980710388846811
1.9999999999999987 397.44 12.988267594067143
2.0999999999999988 392.34600000000046 12.370016220737215
2.199999999999999 387.44600000000025 13.747802954875588
2.299999999999999 383.22800000000007 13.223724244057816
2.399999999999999 378.7320000000005 13.466905120833589
2.499999999999999 375.17200000000014 13.491049789561382
2.599999999999999 370.8919999999999 14.353897393055588
2.6999999999999993 366.7759999999998 14.092708342558879
2.7999999999999994 364.26399999999984 14.266247924027878
2.8999999999999995 361.2720000000006 14.454028328979236
2.9999999999999996 357.7779999999997 13.889551311530393
3.0999999999999996 355.39600000000047 13.56684352542049
3.1999999999999997 351.2739999999998 13.06398069470372
3.3 350.4460000000001 13.683139709595622
3.4 347.4919999999998 13.837825747617327
3.5 346.93 13.634111228422213
3.6 344.59399999999994 13.376774727194228
3.7 342.3260000000006 12.554016382310785
3.8000000000000003 341.00599999999946 12.53798888040523
3.9000000000000004 338.9239999999998 12.200289794552875
4.0 337.31600000000043 12.202337523648533
4.1 336.03400000000016 12.182087146595485
4.199999999999999 335.5259999999995 11.723854859762335
4.299999999999999 333.878 11.968306327812474
4.399999999999999 333.8100000000002 11.6925881060019
4.499999999999998 332.1940000000002 10.786227640222812
4.599999999999998 330.5580000000005 10.685074019715843
4.6999999999999975 330.4460000000004 10.818785982268524
4.799999999999997 329.2460000000001 10.651240910472955
4.899999999999997 328.44399999999996 10.580113553398352
4.9999999999999964 327.5280000000001 10.131923404362654
5.099999999999996 327.14000000000016 10.024814057971177
5.199999999999996 326.48400000000026 9.957956863980973
5.299999999999995 326.0240000000001 9.598518404189052
5.399999999999995 325.39799999999985 9.335778101087932
5.499999999999995 324.98800000000006 9.28515320660193
5.599999999999994 324.3860000000003 8.854456810296472
5.699999999999994 324.0860000000003 9.179371703164923
5.799999999999994 323.13999999999925 8.675463311181923
5.899999999999993 323.11400000000003 8.424605508745096
5.999999999999993 322.6280000000003 8.236106449618617
6.0999999999999925 322.5519999999998 8.194781903775766
6.199999999999992 322.1599999999999 8.462033207569354
6.299999999999992 322.032 8.07813296698144
6.3999999999999915 321.71000000000004 7.710210590337134
6.499999999999991 321.13 7.872043512904962
6.599999999999991 321.0379999999999 7.831212159294617
6.69999999999999 321.1239999999999 7.264530087858243
6.79999999999999 320.13000000000045 7.385231319440281
6.89999999999999 320.80800000000016 7.68206678896703
6.999999999999989 320.5520000000004 7.1544729003947225
7.099999999999989 320.3459999999996 7.155101640052285
7.199999999999989 319.832 7.175462581831456
7.299999999999988 319.86 7.113860204348074
7.399999999999988 319.49 7.254276292265472
7.499999999999988 319.104 7.195064485670217
7.599999999999987 318.7819999999999 6.806673696219521
7.699999999999987 319.28200000000004 6.856492360346317
7.7999999999999865 318.61600000000016 7.057928758379347
7.899999999999986 318.60199999999975 6.711977849087896
7.999999999999986 318.3539999999997 6.524818561251891
