# Rounds: 100, repetitions: 1000
# Good arm ~ N(5.0,0.0), 16 bad arm(s) ~ N(0.0,0.0)
# Observation noise range from 0.5 to 8.0 with step size 0.1

# Observation noise | mean | standard deviation

0.5 424.8399999999998 1.2946335682640593
0.6 424.77499999999986 1.7399432181546512
0.7 424.7700000000003 1.7464679069911613
0.7999999999999999 424.62500000000006 2.106849262242993
0.8999999999999999 424.4400000000001 2.211626390530564
0.9999999999999999 424.1749999999998 3.465022565782407
1.0999999999999999 423.93500000000023 3.2941807216099717
1.1999999999999997 423.1900000000002 4.9191562384313405
1.2999999999999996 422.424999999999 5.79032839335584
1.3999999999999995 421.63999999999993 6.045407095220895
1.4999999999999993 419.4599999999998 7.145590210714534
1.5999999999999992 415.94 9.29261818610627
1.699999999999999 412.8800000000003 9.879433344235968
1.799999999999999 407.3450000000001 10.91994598064567
1.8999999999999988 401.6549999999995 12.040803791938306
1.9999999999999987 394.945 13.166067002727932
2.0999999999999988 387.60499999999985 14.097436387964768
2.199999999999999 379.79999999999984 14.738630439332875
2.299999999999999 372.82000000000016 15.054043450987617
2.399999999999999 365.0299999999998 15.465713313271069
2.499999999999999 356.6550000000002 16.099539439691092
2.599999999999999 349.3200000000001 16.231175282494195
2.6999999999999993 342.3 16.374618411680007
2.7999999999999994 334.7349999999999 17.86263835072659
2.8999999999999995 327.3950000000002 17.305734987669933
2.9999999999999996 319.495 18.59746866755903
3.0999999999999996 310.96 20.573080752567225
3.1999999999999997 303.10499999999973 20.552527372111214
3.3 295.11000000000007 20.525818113030454
3.4 287.5149999999996 22.60997536455946
3.5 278.2049999999997 22.072384673278133
3.6 269.38999999999993 23.649253417120526
3.7 261.4049999999998 24.764172492519098
3.8000000000000003 253.51500000000001 25.404037870782247
3.9000000000000004 244.25999999999996 25.747141886339854
4.0 236.7250000000002 26.655391291160573
4.1 229.31500000000008 26.84728201422915
4.199999999999999 220.9050000000001 27.597420035079224
4.299999999999999 213.2949999999999 27.809015018808477
4.399999999999999 205.48500000000027 29.180323272134387
4.499999999999998 197.715 29.672955013939237
4.599999999999998 190.8250000000002 29.396573499874926
4.6999999999999975 183.40500000000017 29.665822692722287
4.799999999999997 177.59500000000025 29.20777412041299
4.899999999999997 168.6099999999999 31.327293200966135
4.9999999999999964 162.35500000000005 30.258793260299893
5.099999999999996 157.17999999999995 30.87313963222318
5.199999999999996 149.80500000000004 30.9975454322245
5.299999999999995 144.18499999999983 31.08982715217876
5.399999999999995 140.33500000000015 29.93591378150889
5.499999999999995 132.96 30.337415162778072
5.599999999999994 128.14000000000001 29.557808850861417
5.699999999999994 124.42500000000001 30.497942545350114
5.799999999999994 120.15 30.541124083115378
5.899999999999993 115.57999999999998 29.325306026938154
5.999999999999993 111.24 29.785055809072237
6.0999999999999925 107.97000000000008 29.30252101334863
6.199999999999992 104.32999999999991 28.14415024819892
6.299999999999992 98.31499999999996 27.42969491560496
6.3999999999999915 97.0650000000001 27.59115885654402
6.499999999999991 92.82999999999993 26.151960252054206
6.599999999999991 91.19999999999993 26.12551516319896
6.69999999999999 87.93499999999997 26.73528661807373
6.79999999999999 84.5449999999999 24.38673179595183
6.89999999999999 83.12000000000008 25.329966585197205
6.999999999999989 79.98000000000005 26.051454436907683
7.099999999999989 78.51000000000015 24.776880227215738
7.199999999999989 75.70999999999992 23.63163884190754
7.299999999999988 75.31500000000008 24.655296766793512
7.399999999999988 72.65 23.880908646820863
7.499999999999988 70.73499999999997 22.529810637627865
7.599999999999987 69.03499999999997 23.043975347144404
7.699999999999987 68.80499999999994 21.77317262242792
7.7999999999999865 67.14999999999993 22.343382168479433
7.899999999999986 64.90499999999997 21.672232479849924
7.999999999999986 63.30499999999998 21.208530754787738
