# Rounds: 1000, repetitions: 1000
# Good arm ~ N(5.0,0.0), 1 bad arm(s) ~ N(2.8,0.0)
# Observation noise range from 0.5 to 4.0 with step size 0.1

# Observation noise | mean | standard deviation

0.5 4999.686999999999 4.930060496230995
0.6 4999.4076000000005 5.53533577863013
0.7 4998.956600000005 5.4027906295346515
0.7999999999999999 4998.360399999999 4.780837609483244
0.8999999999999999 4997.872000000003 4.866573696096695
0.9999999999999999 4997.388000000001 4.883468466598819
1.0999999999999999 4996.767599999998 4.22785347250645
1.1999999999999997 4996.076799999999 4.0111184014973
1.2999999999999996 4995.3838000000005 3.8158220684483486
1.3999999999999995 4994.4422 3.9635702402062942
1.4999999999999993 4993.302599999999 4.0862955168527515
1.5999999999999992 4992.484199999993 3.8893389306304003
1.699999999999999 4991.181799999991 4.2407844808493556
1.799999999999999 4990.209400000003 3.9351540093212627
1.8999999999999988 4989.2083999999995 3.6129687215616837
1.9999999999999987 4987.9609999999975 3.4184272179827238
2.0999999999999988 4986.898400000002 3.292846835229465
2.199999999999999 4985.415599999993 3.6264069638510703
2.299999999999999 4984.247400000004 4.076205182358802
2.399999999999999 4982.760199999996 3.796576082465572
2.499999999999999 4981.284000000001 3.737725858673201
2.599999999999999 4980.056399999993 3.573489732581966
2.6999999999999993 4978.413000000003 4.071605207896383
2.7999999999999994 4976.921400000003 4.090040399613496
2.8999999999999995 4975.319800000004 4.152981485055692
2.9999999999999996 4973.876599999998 4.040318875610783
3.0999999999999996 4972.123200000004 4.119567039458444
3.1999999999999997 4970.545800000007 4.380179029255346
3.3 4968.880400000003 4.380840970362562
3.4 4967.245799999997 4.447683019758026
3.5 4965.472600000003 4.474200231070068
3.6 4963.743399999999 4.572778886710621
3.7 4961.6908 4.81503269977471
3.8000000000000003 4959.886800000005 5.010569984699489
3.9000000000000004 4957.930999999997 5.102080970567789
4.0 4956.342600000001 5.154201299040537
