# Rounds: 1000, repetitions: 1000
# Good arm ~ N(5.0,0.0), 1 bad arm(s) ~ N(0.5,0.0)
# Observation noise range from 0.5 to 4.0 with step size 0.1

# Observation noise | mean | standard deviation

0.5 4999.280499999999 2.759108992488797
0.6 4999.100500000004 3.027840413160434
0.7 4998.911499999998 3.1720623779695063
0.7999999999999999 4999.127500000004 2.9659383912246757
0.8999999999999999 4999.050999999997 3.113774974945109
0.9999999999999999 4998.722499999999 3.513415409233277
1.0999999999999999 4998.749500000005 3.214238802746485
1.1999999999999997 4998.5425 3.4163013428070235
1.2999999999999996 4997.777500000004 3.7207644157938313
1.3999999999999995 4996.751500000001 3.796631686398109
1.4999999999999993 4996.121500000007 3.619404348485742
1.5999999999999992 4995.194499999994 3.323622453922241
1.699999999999999 4994.812000000003 3.113735915480221
1.799999999999999 4994.479 3.1249518915215826
1.8999999999999988 4993.619500000002 3.7645905344262576
1.9999999999999987 4992.922000000002 3.3515143813876698
2.0999999999999988 4992.035499999995 3.2616910304899385
2.199999999999999 4990.820499999995 3.4763651800213573
2.299999999999999 4990.105000000003 3.4638090266313264
2.399999999999999 4989.182499999996 3.612408233193379
2.499999999999999 4988.322999999997 3.503561894122329
2.599999999999999 4987.2024999999885 4.044453158506296
2.6999999999999993 4986.23500000001 3.582332774618771
2.7999999999999994 4985.191000000003 3.81071391481183
2.8999999999999995 4984.228000000001 3.7195902128260223
2.9999999999999996 4982.810500000007 4.047619420470833
3.0999999999999996 4981.793499999998 3.9822689783860543
3.1999999999999997 4980.708999999993 4.2080906628810855
3.3 4979.511999999997 4.31630472586058
3.4 4978.188999999999 4.351691190355346
3.5 4976.983000000003 4.422586377932076
3.6 4975.749999999998 4.511247205746026
3.7 4974.345999999995 4.566304319155193
3.8000000000000003 4972.919499999996 5.002078621987155
3.9000000000000004 4971.637000000002 4.778762137579955
4.0 4970.309500000006 4.928513974820382
