# Rounds: 1000, repetitions: 1000
# Good arm ~ N(5.0,0.0), 1 bad arm(s) ~ N(0.9,0.0)
# Observation noise range from 0.5 to 4.0 with step size 0.1

# Observation noise | mean | standard deviation

0.5 4999.350200000005 3.039717065754468
0.6 4999.452700000006 3.02661082451674
0.7 4999.120599999996 3.3966472959157286
0.7999999999999999 4999.251800000003 3.267242205841295
0.8999999999999999 4999.005800000003 3.6702611865065142
0.9999999999999999 4998.919700000012 3.8735857518035255
1.0999999999999999 4998.440000000002 3.895869325041136
1.1999999999999997 4998.0217999999995 3.837547593389553
1.2999999999999996 4997.611799999999 3.4777946770640247
1.3999999999999995 4996.5704 3.8148285356954053
1.4999999999999993 4995.840599999995 3.415420433378062
1.5999999999999992 4995.385500000005 3.118571024561657
1.699999999999999 4994.8278999999975 3.3113466454913674
1.799999999999999 4994.036600000006 3.361990990978942
1.8999999999999988 4993.2863000000025 3.586776725317258
1.9999999999999987 4992.318700000005 3.4718747420124987
2.0999999999999988 4991.392100000004 3.5173483377864927
2.199999999999999 4990.563900000006 3.426033346961814
2.299999999999999 4989.432300000004 3.934102677088319
2.399999999999999 4988.669699999997 3.554164317247307
2.499999999999999 4987.431499999996 3.7456357988381677
2.599999999999999 4986.5336000000025 3.719056657597876
2.6999999999999993 4985.406100000002 3.8000122214124463
2.7999999999999994 4984.622999999994 3.7170562959832494
2.8999999999999995 4983.515999999993 3.809390430955644
2.9999999999999996 4982.228600000002 3.9581800400221603
3.0999999999999996 4980.945300000003 4.063539129903942
3.1999999999999997 4979.735799999997 4.190835413310927
3.3 4978.731300000002 4.347692806850777
3.4 4977.095400000001 4.179996556363457
3.5 4975.7874999999985 4.37859176172138
3.6 4974.815800000007 4.5622411602635555
3.7 4973.183999999996 4.766859232969449
3.8000000000000003 4971.859700000002 4.822503753492775
3.9000000000000004 4970.48209999999 4.883748620741119
4.0 4968.97330000001 5.322609066733894
