# Rounds: 1000, repetitions: 1000
# Good arm ~ N(5.0,0.0), 1 bad arm(s) ~ N(4.6,0.0)
# Observation noise range from 0.5 to 4.0 with step size 0.1

# Observation noise | mean | standard deviation

0.5 4998.392399999997 2.746424054126556
0.6 4996.596400000009 2.3966917138361956
0.7 4994.687999999997 2.257483606193471
0.7999999999999999 4992.645200000002 2.0778918630656706
0.8999999999999999 4990.503599999996 1.9428024916396711
0.9999999999999999 4988.0359999999955 1.9374771786572393
1.0999999999999999 4985.485199999993 1.844728702000323
1.1999999999999997 4982.7923999999975 2.020501092468028
1.2999999999999996 4979.987600000005 1.9885976870047384
1.3999999999999995 4977.276800000003 2.0839300670906016
1.4999999999999993 4974.281600000007 2.187758608194109
1.5999999999999992 4971.243199999994 2.1973261027899538
1.699999999999999 4968.30200000001 2.5098636248639146
1.799999999999999 4965.097600000001 2.765683142235023
1.8999999999999988 4962.025199999997 3.1204843185604645
1.9999999999999987 4958.911999999999 3.1316933923203862
2.0999999999999988 4955.750399999994 3.2254896719138957
2.199999999999999 4952.594800000003 3.2851248081320676
2.299999999999999 4949.0824 3.7029126106082377
2.399999999999999 4945.9263999999985 3.761714174885364
2.499999999999999 4942.658799999999 3.9698844495202765
2.599999999999999 4939.3560000000025 4.073516605776547
2.6999999999999993 4935.883599999997 4.384910315899153
2.7999999999999994 4932.746399999993 4.460608037483739
2.8999999999999995 4929.624400000003 4.8901163460473684
2.9999999999999996 4926.3507999999965 4.963689915534562
3.0999999999999996 4923.154799999994 5.209173874277399
3.1999999999999997 4920.057999999989 5.297854590611551
3.3 4916.93959999999 5.441400617550839
3.4 4913.867599999997 5.68912967302019
3.5 4910.621599999994 5.947263520593772
3.6 4906.962800000001 5.855741273815657
3.7 4904.068399999986 6.407937507740291
3.8000000000000003 4901.767999999999 6.639507440997586
3.9000000000000004 4898.365199999992 6.665230247655216
4.0 4895.637599999993 7.101598336919873
