# Rounds: 1000, repetitions: 1000
# Good arm ~ N(5.0,0.0), 1 bad arm(s) ~ N(1.3,0.0)
# Observation noise range from 0.5 to 4.0 with step size 0.1

# Observation noise | mean | standard deviation

0.5 4999.486999999996 3.6079285120618287
0.6 4999.605400000003 3.219197737647467
0.7 4999.320499999998 3.6995833098698285
0.7999999999999999 4999.368600000001 3.663740852876693
0.8999999999999999 4999.13179999999 4.069686856640429
0.9999999999999999 4998.791400000009 4.132692244189716
1.0999999999999999 4998.373300000003 4.074255351185933
1.1999999999999997 4997.492700000003 3.8007739465263217
1.2999999999999996 4996.823000000004 3.712755789916219
1.3999999999999995 4996.305000000001 3.4359483029786344
1.4999999999999993 4995.949799999994 3.3132790069323623
1.5999999999999992 4995.2356999999965 3.6509320474114566
1.699999999999999 4994.547499999995 3.3692440629251683
1.799999999999999 4993.4374999999945 3.4989350231601506
1.8999999999999988 4992.786299999996 3.37741754292522
1.9999999999999987 4991.809499999993 3.2898088990991314
2.0999999999999988 4991.080599999998 3.4036022311878966
2.199999999999999 4990.077900000002 3.408741866306435
2.299999999999999 4988.964199999988 3.5166497103329313
2.399999999999999 4988.072499999997 3.4056529802993305
2.499999999999999 4987.177099999999 3.3918151482649357
2.599999999999999 4986.0042 3.657241826537753
2.6999999999999993 4984.834999999994 3.526487077972991
2.7999999999999994 4983.699100000002 3.955876407087007
2.8999999999999995 4982.518799999997 3.956349233732897
2.9999999999999996 4981.397700000004 3.755799614028994
3.0999999999999996 4979.921400000006 3.8447892587818866
3.1999999999999997 4978.844699999994 3.9390186313062716
3.3 4977.446099999997 4.206435413612036
3.4 4976.321299999996 4.183254226786424
3.5 4974.663699999992 4.363474787623134
3.6 4973.346499999996 4.501936825987836
3.7 4971.522400000005 4.783410839480454
3.8000000000000003 4970.760199999995 4.572174618356163
3.9000000000000004 4968.999000000004 4.876196909097841
4.0 4967.274800000003 4.985260051168525
