# Rounds: 1000, repetitions: 1000
# Good arm ~ N(5.0,0.0), 1 bad arm(s) ~ N(1.7,0.0)
# Observation noise range from 0.5 to 4.0 with step size 0.1

# Observation noise | mean | standard deviation

0.5 4999.6012 3.953034915738092
0.6 4999.502200000003 3.747692671546022
0.7 4999.287700000002 4.095430534298022
0.7999999999999999 4999.3767999999955 3.951490356313076
0.8999999999999999 4998.927999999994 4.375653361766854
0.9999999999999999 4998.6244 4.141402643532102
1.0999999999999999 4997.872000000004 3.957025910207448
1.1999999999999997 4997.145999999999 4.2069826125979946
1.2999999999999996 4996.608099999997 3.9039858472456723
1.3999999999999995 4996.212100000001 3.630962334901907
1.4999999999999993 4995.433299999996 3.707269204543149
1.5999999999999992 4994.743599999997 3.650282674479226
1.699999999999999 4993.849299999995 3.4237964150767417
1.799999999999999 4993.0309 3.4404901049360817
1.8999999999999988 4992.321400000003 3.253485393729017
1.9999999999999987 4991.222499999993 3.4476179921534817
2.0999999999999988 4990.225900000003 3.4271569258782306
2.199999999999999 4989.150100000008 3.744414591178596
2.299999999999999 4988.252499999999 3.548891147721886
2.399999999999999 4987.133800000008 3.5904664054979225
2.499999999999999 4986.209800000001 3.2956433704552515
2.599999999999999 4984.797399999997 3.7544812383829806
2.6999999999999993 4983.421299999993 3.7331719599936437
2.7999999999999994 4982.65900000001 3.751553432000297
2.8999999999999995 4981.279600000002 3.7711968611788946
2.9999999999999996 4980.1213000000025 3.921159497113265
3.0999999999999996 4978.695700000006 3.909577509949867
3.1999999999999997 4977.303100000001 3.9489612159002303
3.3 4975.9402 4.207972313477226
3.4 4974.606999999995 4.230625153471961
3.5 4972.834899999997 4.3738979152437345
3.6 4971.590800000003 4.285314373447972
3.7 4969.8715000000075 4.751367512963368
3.8000000000000003 4968.6174999999985 4.979230511483324
3.9000000000000004 4966.888299999999 4.863186578128997
4.0 4965.466 5.178016594783791
