# Rounds: 1000, repetitions: 1000
# Good arm ~ N(5.0,0.0), 1 bad arm(s) ~ N(4.1,0.0)
# Observation noise range from 0.5 to 4.0 with step size 0.1

# Observation noise | mean | standard deviation

0.5 4999.228299999997 5.0833935515558695
0.6 4998.3625 4.680815504138516
0.7 4997.510199999996 4.365124313266577
0.7999999999999999 4996.519299999998 3.738991517450584
0.8999999999999999 4995.246699999992 3.8281776413919824
0.9999999999999999 4994.020899999992 3.28724796588109
1.0999999999999999 4992.528700000004 3.160895057980833
1.1999999999999997 4990.9519 3.1088520954447243
1.2999999999999996 4989.195099999999 3.3058031284884937
1.3999999999999995 4987.4896 3.0253073107246693
1.4999999999999993 4985.542899999996 3.0303651104615517
1.5999999999999992 4983.755500000004 3.056093823733082
1.699999999999999 4981.626100000005 3.3773681181365443
1.799999999999999 4979.706399999994 3.2058035211497353
1.8999999999999988 4977.776799999998 2.7460776942218046
1.9999999999999987 4975.408900000006 3.012724231870046
2.0999999999999988 4973.294800000003 2.9482036674667937
2.199999999999999 4970.873799999997 3.216672277453872
2.299999999999999 4968.450099999992 3.3825880464359592
2.399999999999999 4965.986800000001 3.955519168439421
2.499999999999999 4963.784499999999 3.766313166063635
2.599999999999999 4961.17 3.9013511173105226
2.6999999999999993 4958.440300000003 3.8909157193564172
2.7999999999999994 4955.940999999999 4.408336696808884
2.8999999999999995 4953.46059999999 4.389660209715127
2.9999999999999996 4950.796600000012 4.689861750973334
3.0999999999999996 4947.6313 4.8186252665526075
3.1999999999999997 4945.228299999995 5.053478678767341
3.3 4942.326700000002 5.243933251476911
3.4 4939.762599999997 5.3935249467625965
3.5 4936.699899999995 5.306600606791484
3.6 4933.6786 5.600445252569348
3.7 4930.8166 6.146094607058846
3.8000000000000003 4928.2201000000005 6.300597075953422
3.9000000000000004 4924.902699999999 6.41655319192981
4.0 4921.859799999999 6.421613588583481
