# Rounds: 1000, repetitions: 1000
# Good arm ~ N(5.0,0.0), 1 bad arm(s) ~ N(4.9,0.0)
# Observation noise range from 0.5 to 4.0 with step size 0.1

# Observation noise | mean | standard deviation

0.5 4992.915900000001 0.7160655975118021
0.6 4989.602600000001 0.8066994508514623
0.7 4986.345799999997 0.9448677871188564
0.7999999999999999 4983.295100000002 0.9986908297232265
0.8999999999999999 4980.300100000007 1.1291345955796996
0.9999999999999999 4977.606099999995 1.2581716042676199
1.0999999999999999 4974.9598999999935 1.3280005932135273
1.1999999999999997 4972.6986 1.366369278418057
1.2999999999999996 4970.460700000004 1.5123798473936565
1.3999999999999995 4968.621800000004 1.5220714376997058
1.4999999999999993 4966.690300000001 1.580852619634229
1.5999999999999992 4965.142900000004 1.6871265471166466
1.699999999999999 4963.596299999997 1.6393180514084285
1.799999999999999 4962.2302999999965 1.6912990280854125
1.8999999999999988 4961.016299999999 1.7150526859883017
1.9999999999999987 4959.683100000006 1.7639886751467215
2.0999999999999988 4958.7219 1.7588359485448568
2.199999999999999 4957.7005999999965 1.9063719190896478
2.299999999999999 4956.728199999997 1.8341834665565186
2.399999999999999 4955.756799999998 1.8933405659042748
2.499999999999999 4955.0336 1.8931124939935717
2.599999999999999 4954.2918999999865 1.895129522197885
2.6999999999999993 4953.460399999998 1.9124825304899344
2.7999999999999994 4952.8334999999925 2.037532647416616
2.8999999999999995 4952.235199999993 1.9730874369966533
2.9999999999999996 4951.497799999996 1.990647592578247
3.0999999999999996 4951.026800000002 2.015689649912685
3.1999999999999997 4950.334300000001 2.012760471271855
3.3 4949.870399999997 2.007469495104258
3.4 4949.495099999998 2.038401597102678
3.5 4948.9752000000035 2.0790977869276994
3.6 4948.458200000007 2.1782923857274152
3.7 4947.9169999999995 2.1486525330326067
3.8000000000000003 4947.680000000002 2.1397379462163215
3.9000000000000004 4947.306499999996 2.140338477624243
4.0 4946.705700000001 2.082761485481507
