# Rounds: 1000, repetitions: 1000
# Good arm ~ N(5.0,0.0), 1 bad arm(s) ~ N(2.9,0.0)
# Observation noise range from 0.5 to 4.0 with step size 0.1

# Observation noise | mean | standard deviation

0.5 4999.867599999997 5.0156901207497055
0.6 4999.483300000005 5.323529945541776
0.7 4998.830200000001 4.9489251176209486
0.7999999999999999 4998.342999999998 4.572911820987034
0.8999999999999999 4997.983900000004 4.7386586367532555
0.9999999999999999 4997.293000000001 4.97159408517511
1.0999999999999999 4996.516000000002 4.419404386920855
1.1999999999999997 4995.8628999999955 4.1767066533895125
1.2999999999999996 4994.9199999999955 4.065411119132707
1.3999999999999995 4994.369800000012 3.2591056640941294
1.4999999999999993 4993.162300000002 3.766235951615837
1.5999999999999992 4991.950600000003 4.4352599891292765
1.699999999999999 4991.026600000008 3.9866208229006816
1.799999999999999 4990.094199999996 3.547228381312449
1.8999999999999988 4989.023200000004 3.0695021752073903
1.9999999999999987 4987.5175000000045 3.587432706466204
2.0999999999999988 4986.114700000003 3.8621354196869397
2.199999999999999 4984.917699999999 3.5382786953725027
2.299999999999999 4983.724900000005 3.4752161252385245
2.399999999999999 4982.067999999997 3.735855004227678
2.499999999999999 4980.635800000005 3.848764912455813
2.599999999999999 4979.1679 3.874373544246838
2.6999999999999993 4977.723100000004 3.7235925571323065
2.7999999999999994 4976.017899999997 4.155302170255037
2.8999999999999995 4974.594100000003 4.236397319923228
2.9999999999999996 4972.752400000003 3.9816237350568318
3.0999999999999996 4971.2760999999955 3.923691392572114
3.1999999999999997 4969.636000000007 4.273146824505772
3.3 4967.827899999996 4.521702930023965
3.4 4965.946299999997 4.507520832348308
3.5 4964.098299999993 4.606752574132854
3.6 4962.288099999998 4.965809869261817
3.7 4960.671099999996 4.899152629433669
3.8000000000000003 4958.741200000004 5.2185703057480985
3.9000000000000004 4956.804999999991 5.35397048927242
4.0 4954.3480000000045 5.289309292600768
