# Rounds: 5000, repetitions: 1000
# Good arm ~ N(5.0,0.0), 1 bad arm(s) ~ N(3.2,0.0)
# Observation noise range from 0.5 to 4.0 with step size 0.1

# Observation noise | mean | standard deviation

0.5 24999.4218 4.8867827254143785
0.6 24998.76660000002 4.725307711988415
0.7 24998.469600000022 4.477553385982847
0.7999999999999999 24997.632599999983 4.294440529272371
0.8999999999999999 24996.500400000026 4.883966929962788
0.9999999999999999 24995.895599999993 4.223730642517503
1.0999999999999999 24994.448400000038 4.08965312743059
1.1999999999999997 24993.469200000007 3.7279792366896762
1.2999999999999996 24992.157000000036 3.1865129632351117
1.3999999999999995 24990.73860000001 3.443005129872204
1.4999999999999993 24989.365200000004 3.29786368197139
1.5999999999999992 24987.68580000003 3.023067531051261
1.699999999999999 24986.089200000042 2.8904113613526463
1.799999999999999 24984.309000000037 2.7957351689910825
1.8999999999999988 24982.23179999999 3.2103543628600755
1.9999999999999987 24980.709 2.532795699233088
2.0999999999999988 24978.529199999964 2.793175466953125
2.199999999999999 24976.756199999978 2.6998612576962935
2.299999999999999 24974.581799999996 2.8998410021647087
2.399999999999999 24972.409200000027 2.752942798906669
2.499999999999999 24970.22040000002 2.8624215792395047
2.599999999999999 24968.020800000006 2.756062996965325
2.6999999999999993 24965.37300000001 2.872859955570814
2.7999999999999994 24963.288600000007 2.985951430606907
2.8999999999999995 24960.896400000034 3.089999212804484
2.9999999999999996 24958.396199999977 3.242180947648363
3.0999999999999996 24955.86539999997 3.2098451591850155
3.1999999999999997 24953.165399999976 3.4461687304766415
3.3 24950.771400000023 3.4363105608002718
3.4 24947.914800000013 3.547456187946712
3.5 24945.220200000014 3.72332850217807
3.6 24942.309599999993 3.836559269322277
3.7 24939.570000000007 3.858931374272821
3.8000000000000003 24936.66660000003 4.084366105833797
3.9000000000000004 24933.98640000001 4.05490533764871
4.0 24931.169399999984 4.206832666160538
