# Rounds: 5000, repetitions: 1000
# Good arm ~ N(5.0,0.0), 1 bad arm(s) ~ N(1.3,0.0)
# Observation noise range from 0.5 to 4.0 with step size 0.1

# Observation noise | mean | standard deviation

0.5 24999.487000000016 3.607928512061398
0.6 24999.6054 3.219197737647074
0.7 24999.320500000023 3.6995833098693756
0.7999999999999999 24999.346400000002 3.663179756157678
0.8999999999999999 24999.03189999999 4.060630629730852
0.9999999999999999 24998.225299999962 4.001492453054133
1.0999999999999999 24997.14859999997 3.5335058658081793
1.1999999999999997 24996.449299999997 3.0978082455055698
1.2999999999999996 24996.127399999994 3.3554296517948714
1.3999999999999995 24995.565000000042 3.3058589963426006
1.4999999999999993 24994.802800000005 3.168196589485206
1.5999999999999992 24993.51149999999 3.1367047464920317
1.699999999999999 24992.73820000001 2.753849023538891
1.799999999999999 24991.513500000023 2.9637360681216167
1.8999999999999988 24990.484900000018 2.8460256238928756
1.9999999999999987 24989.43780000002 2.759218085698559
2.0999999999999988 24988.2908 2.8428290551909563
2.199999999999999 24987.184499999985 2.911959693962236
2.299999999999999 24985.626800000002 2.8345257621510713
2.399999999999999 24984.446500000027 2.860204279159151
2.499999999999999 24983.206999999995 2.895737608330305
2.599999999999999 24981.693699999996 3.087439488086305
2.6999999999999993 24980.217399999998 2.9725566997677952
2.7999999999999994 24978.759599999994 3.3142136098706567
2.8999999999999995 24977.2167 3.3314996623140463
2.9999999999999996 24975.914300000022 3.3103721957013845
3.0999999999999996 24974.075400000016 3.3518337711810022
3.1999999999999997 24972.4844 3.3007895800630607
3.3 24970.638099999975 3.6583414072301084
3.4 24969.302400000004 3.600697051858576
3.5 24967.426500000005 3.5794720798427058
3.6 24965.495100000044 3.643402306961703
3.7 24963.793099999984 4.042026765172861
3.8000000000000003 24962.209500000004 3.896231560158332
3.9000000000000004 24959.84889999999 4.014061718693995
4.0 24958.280100000014 4.2367539548664
