# Rounds: 5000, repetitions: 1000
# Good arm ~ N(5.0,0.0), 1 bad arm(s) ~ N(3.8,0.0)
# Observation noise range from 0.5 to 4.0 with step size 0.1

# Observation noise | mean | standard deviation

0.5 24999.041999999976 4.876828832290543
0.6 24998.101199999997 4.979814968160832
0.7 24997.35960000001 4.115855695734249
0.7999999999999999 24996.071999999986 4.142402140726358
0.8999999999999999 24995.04359999999 3.612349388985748
0.9999999999999999 24993.6276 3.509261055144336
1.0999999999999999 24991.735199999996 3.9388266419475317
1.1999999999999997 24990.1896 2.9420924097906047
1.2999999999999996 24988.414799999962 2.8861793067982298
1.3999999999999995 24986.30880000001 2.795678518424124
1.4999999999999993 24984.201599999986 3.1532110903299917
1.5999999999999992 24982.16519999998 3.0806946683564815
1.699999999999999 24979.8168 2.4363032104674223
1.799999999999999 24977.5392 2.37662611946278
1.8999999999999988 24974.985599999985 2.5212197820083064
1.9999999999999987 24972.3696 2.397937852811761
2.0999999999999988 24969.820800000023 2.3861896951547696
2.199999999999999 24967.07399999998 2.4887422200460962
2.299999999999999 24964.42080000002 2.375291428303482
2.399999999999999 24961.488000000027 2.9340867173392495
2.499999999999999 24958.432799999984 2.6604514959240544
2.599999999999999 24955.38720000001 2.918635742020254
2.6999999999999993 24952.305600000036 2.880504460324559
2.7999999999999994 24949.26599999999 2.9484398073050446
2.8999999999999995 24945.881999999987 3.004087305746079
2.9999999999999996 24942.6144 3.268160570338801
3.0999999999999996 24939.289200000003 3.3286999870230445
3.1999999999999997 24935.804399999986 3.4374578916347
3.3 24932.281200000005 3.484679260642834
3.4 24928.905599999995 3.5151678544630904
3.5 24925.400400000046 3.804996430726661
3.6 24921.68640000001 3.8972045421365618
3.7 24917.995200000016 4.017257188097542
3.8000000000000003 24914.121599999973 4.098635413434336
3.9000000000000004 24910.48079999998 4.233413888714202
4.0 24906.716399999994 4.178984919207209
