# Rounds: 5000, repetitions: 1000
# Good arm ~ N(5.0,0.0), 1 bad arm(s) ~ N(4.1,0.0)
# Observation noise range from 0.5 to 4.0 with step size 0.1

# Observation noise | mean | standard deviation

0.5 24998.72339999999 4.847177278331035
0.6 24997.61820000001 4.339684507152383
0.7 24996.45719999998 3.937546499081973
0.7999999999999999 24995.02890000001 3.1831599547146006
0.8999999999999999 24993.305400000027 3.220034077375273
0.9999999999999999 24991.529699999992 2.588839508351379
1.0999999999999999 24989.418299999965 2.3903574876822713
1.1999999999999997 24987.240299999994 2.2445810419886123
1.2999999999999996 24984.881399999987 2.450264850549366
1.3999999999999995 24982.332600000016 2.1368208261911015
1.4999999999999993 24979.753199999974 2.1150610495311932
1.5999999999999992 24976.965899999985 2.047173199343309
1.699999999999999 24974.02289999998 2.461943694879677
1.799999999999999 24971.195099999975 2.041120320354298
1.8999999999999988 24968.298000000017 1.9792709550527423
1.9999999999999987 24965.1093 2.1423662719632275
2.0999999999999988 24961.869299999988 2.298014007437803
2.199999999999999 24958.376400000005 2.3992539380944415
2.299999999999999 24955.106700000004 2.464345371109871
2.399999999999999 24951.52109999999 2.7791344656890056
2.499999999999999 24948.071399999983 2.6488371747583246
2.599999999999999 24944.195099999968 2.725596240250369
2.6999999999999993 24940.300800000008 2.9037891368616293
2.7999999999999994 24936.720599999982 2.9834739410225275
2.8999999999999995 24932.69939999999 3.1047188147917613
2.9999999999999996 24928.77629999998 3.24496503958253
3.0999999999999996 24924.330299999998 3.281682701200066
3.1999999999999997 24920.552099999983 3.4434943361719603
3.3 24916.276199999993 3.6829713327480986
3.4 24912.101099999985 3.731620798498844
3.5 24907.59029999999 3.70135596044918
3.6 24903.131699999973 3.945578880558634
3.7 24898.756799999996 4.181978324036152
3.8000000000000003 24894.300000000014 4.177352064439437
3.9000000000000004 24889.526399999977 4.190296125768474
4.0 24885.09209999999 4.516603513405228
