# Rounds: 5000, repetitions: 1000
# Good arm ~ N(5.0,0.0), 1 bad arm(s) ~ N(1.8,0.0)
# Observation noise range from 0.5 to 4.0 with step size 0.1

# Observation noise | mean | standard deviation

0.5 24999.3808 4.35519449382876
0.6 24999.422400000014 3.976887460548858
0.7 24999.313600000012 4.334914823445109
0.7999999999999999 24999.038399999983 4.281333350167029
0.8999999999999999 24998.52000000001 3.8424216588242617
0.9999999999999999 24997.483200000013 3.5553619166485615
1.0999999999999999 24997.249600000025 3.1498224110603177
1.1999999999999997 24996.545600000016 3.6641706819937685
1.2999999999999996 24995.687999999966 3.448081389013668
1.3999999999999995 24994.641600000024 3.218892777137875
1.4999999999999993 24993.81600000002 3.013546990751624
1.5999999999999992 24992.7664 3.4625742534224933
1.699999999999999 24991.703999999983 3.015247206402449
1.799999999999999 24990.632 2.772483122160261
1.8999999999999988 24989.537599999985 2.812631710185057
1.9999999999999987 24988.295999999995 2.8123109879767285
2.0999999999999988 24986.769600000014 2.8006069412255723
2.199999999999999 24985.48640000001 3.074864196973764
2.299999999999999 24983.995200000023 2.9723276555071814
2.399999999999999 24982.862399999987 2.8190021307216386
2.499999999999999 24981.24640000003 2.906360950393668
2.599999999999999 24979.68480000003 3.039125736991577
2.6999999999999993 24978.158399999993 3.033009823358424
2.7999999999999994 24976.542399999966 2.964812363768411
2.8999999999999995 24974.785599999967 3.1801361458132154
2.9999999999999996 24973.124799999983 3.279850969538851
3.0999999999999996 24971.2464 3.311291544351638
3.1999999999999997 24969.694399999986 3.4332019334025836
3.3 24967.656000000014 3.50293799182589
3.4 24965.92799999998 3.4031981661019586
3.5 24964.14239999998 3.613948375788551
3.6 24962.18080000002 3.8256642648132115
3.7 24960.286400000005 3.957923723393559
3.8000000000000003 24958.32159999999 3.796876309509119
3.9000000000000004 24956.05280000002 4.22609418163324
4.0 24954.030400000014 4.289208919271284
