# Rounds: 5000, repetitions: 1000
# Good arm ~ N(5.0,0.0), 1 bad arm(s) ~ N(2.4,0.0)
# Observation noise range from 0.5 to 4.0 with step size 0.1

# Observation noise | mean | standard deviation

0.5 24999.80519999999 4.535520246224115
0.6 24999.56600000001 4.813390980664024
0.7 24999.02520000002 4.897909194184626
0.7999999999999999 24998.53639999997 3.667561321375174
0.8999999999999999 24997.987800000003 3.8082113430891082
0.9999999999999999 24997.475599999976 3.8869773903679454
1.0999999999999999 24996.529199999986 3.520355132690315
1.1999999999999997 24995.49959999998 3.65136307319496
1.2999999999999996 24994.560999999987 3.804285950292355
1.3999999999999995 24993.531399999985 3.343536043363757
1.4999999999999993 24992.3406 3.2840731990584944
1.5999999999999992 24991.368199999975 2.7207556434322755
1.699999999999999 24989.969400000035 3.299695687730926
1.799999999999999 24988.750000000015 2.7301270288383597
1.8999999999999988 24987.353799999986 2.712885051989353
1.9999999999999987 24985.98359999999 2.879587307769145
2.0999999999999988 24984.420999999988 2.8940861657413586
2.199999999999999 24983.014399999993 2.554133167286975
2.299999999999999 24981.3062 2.726072822400424
2.399999999999999 24979.670800000004 2.815463406650974
2.499999999999999 24977.874199999995 2.9744952482696
2.599999999999999 24976.218000000008 2.8030149647996128
2.6999999999999993 24974.359000000022 3.2163432440992996
2.7999999999999994 24972.47659999996 3.121473375833422
2.8999999999999995 24970.76580000007 3.094467011633377
2.9999999999999996 24968.67800000002 3.291545270882475
3.0999999999999996 24966.77739999999 3.3612180867986634
3.1999999999999997 24964.832599999983 3.3205064377287776
3.3 24962.61740000001 3.4396232712673895
3.4 24960.61019999996 3.5340097884957635
3.5 24958.246799999997 3.7783178063055978
3.6 24956.166800000035 3.74305065263442
3.7 24953.977599999995 3.610680719095959
3.8000000000000003 24951.671400000007 4.15710278241208
3.9000000000000004 24949.51339999995 4.045603458983903
4.0 24947.103200000038 4.045149316526092
