# Rounds: 5000, repetitions: 1000
# Good arm ~ N(5.0,0.0), 1 bad arm(s) ~ N(4.5,0.0)
# Observation noise range from 0.5 to 4.0 with step size 0.1

# Observation noise | mean | standard deviation

0.5 24997.861500000025 2.5680074790413494
0.6 24995.91550000003 2.3872177442702163
0.7 24993.605499999976 2.0673397504144413
0.7999999999999999 24991.131500000007 1.5560781243655832
0.8999999999999999 24988.116499999996 2.0195931537085423
0.9999999999999999 24985.1505 1.8272763033238086
1.0999999999999999 24981.863000000012 1.5982131538957016
1.1999999999999997 24978.40499999999 2.169950156958362
1.2999999999999996 24974.920000000013 1.4283347437278588
1.3999999999999995 24971.149999999998 1.5163440570329945
1.4999999999999993 24967.209500000008 1.6922539624634987
1.5999999999999992 24963.2045 1.6909432394492376
1.699999999999999 24958.82649999999 1.850424767944309
1.799999999999999 24954.44100000001 1.9360442317434936
1.8999999999999988 24949.96650000003 2.06915662992418
1.9999999999999987 24945.37399999997 2.113312586933144
2.0999999999999988 24940.555500000028 2.2322976734528437
2.199999999999999 24935.637500000008 2.432953557512548
2.299999999999999 24930.673000000013 2.4650857282552567
2.399999999999999 24925.5835 2.659859508057277
2.499999999999999 24920.340500000024 2.826446275546106
2.599999999999999 24915.102000000003 2.836660473627867
2.6999999999999993 24909.69450000001 2.958491578900008
2.7999999999999994 24903.970000000038 3.070590908689833
2.8999999999999995 24898.727000000003 3.32204861599086
2.9999999999999996 24892.804500000002 3.388807129915142
3.0999999999999996 24887.140500000023 3.6332781975043686
3.1999999999999997 24881.42550000005 3.6729675251001526
3.3 24875.35400000001 3.7121373848449823
3.4 24869.299999999985 3.888652931494634
3.5 24863.276500000018 4.064149980631288
3.6 24857.149000000012 4.299393420447074
3.7 24850.930000000004 4.423139627477792
3.8000000000000003 24844.60700000002 4.766473567562356
3.9000000000000004 24838.161999999993 4.78802476822966
4.0 24831.950500000014 4.927736025025283
