# Rounds: 5000, repetitions: 1000
# Good arm ~ N(5.0,1.0), 19 bad arm(s) ~ N(2.0,1.0)
# Observation noise range from 0.5 to 8.0 with step size 0.1

# Observation noise | mean | standard deviation

0.5 24938.20117384157 73.70253591486552
0.6 24934.093391226754 70.5578088904602
0.7 24927.16443280072 70.55930929899861
0.7999999999999999 24920.13092645118 72.01118855559143
0.8999999999999999 24908.693871140447 72.71092574335165
0.9999999999999999 24898.164808835852 73.31593508614715
1.0999999999999999 24882.58893092139 73.30487532727899
1.1999999999999997 24865.387276283414 74.31338427591783
1.2999999999999996 24851.09498946926 71.69422291378655
1.3999999999999995 24834.77930648568 75.0426895743492
1.4999999999999993 24816.008709479884 73.16349562656228
1.5999999999999992 24798.244934396884 72.01533106996472
1.699999999999999 24774.529243105168 75.41905790566095
1.799999999999999 24758.478286144997 72.44037468890099
1.8999999999999988 24733.67859515577 72.13677279833864
1.9999999999999987 24712.418969504826 74.53024254046245
2.0999999999999988 24692.130581606838 73.89229223276321
2.199999999999999 24667.16350513659 72.9583987589505
2.299999999999999 24644.560526739908 73.22314326920896
2.399999999999999 24618.74875413467 72.76528162070106
2.499999999999999 24595.86729672947 74.46163350142655
2.599999999999999 24569.333635290917 73.4609523499825
2.6999999999999993 24541.2943142812 75.22440411720159
2.7999999999999994 24514.860368800317 77.83854823596417
2.8999999999999995 24482.78620172218 73.76894490597218
2.9999999999999996 24456.484284481332 76.29229836997207
3.0999999999999996 24426.00029208243 78.11935854959492
3.1999999999999997 24393.7238904878 77.26132925195706
3.3 24366.15526555133 76.84366021633326
3.4 24338.148457294923 77.38034550461339
3.5 24308.788041994936 81.49948241267363
3.6 24274.810209791223 78.19501169996244
3.7 24240.67879039927 77.96341685017693
3.8000000000000003 24211.953077020644 78.74464487622875
3.9000000000000004 24179.039714758026 82.85079528522661
4.0 24142.8941197303 77.6760551964481
4.1 24109.221237337548 81.18379346180315
4.199999999999999 24077.496433119388 81.60598522013166
4.299999999999999 24040.461016098936 82.08483695817358
4.399999999999999 24007.543460622524 81.70382479937594
4.499999999999998 23965.750812388455 82.83270332330311
4.599999999999998 23935.35475149145 82.26610701644233
4.6999999999999975 23897.7862846609 83.05153603696812
4.799999999999997 23860.634712611 84.38052554018638
4.899999999999997 23826.173928348195 84.0496599760725
4.9999999999999964 23788.777216127397 82.84824875418536
5.099999999999996 23753.73321609261 85.87745186898074
5.199999999999996 23711.775837089608 85.52392840164678
5.299999999999995 23675.873880948628 84.79372393582597
5.399999999999995 23635.627381071386 83.64608345194536
5.499999999999995 23597.918088306218 91.34746045710959
5.599999999999994 23557.99676042442 90.10348855211338
5.699999999999994 23522.711885715282 90.01995922878618
5.799999999999994 23478.414266990127 87.59544404209738
5.899999999999993 23441.919901888836 88.693374546995
5.999999999999993 23407.30821798263 92.73742024816717
6.0999999999999925 23358.293042962337 89.82706780009535
6.199999999999992 23320.41048360457 90.75299273445452
6.299999999999992 23273.744086943978 93.8054495597628
6.3999999999999915 23237.99296953154 92.9088609614694
6.499999999999991 23192.91140887687 94.99371576748065
6.599999999999991 23153.81843194304 96.99649486083305
6.69999999999999 23112.768243893915 95.20307388593613
6.79999999999999 23065.609195576948 95.85510514535434
6.89999999999999 23018.72011795378 90.62075759869245
6.999999999999989 22981.473339716526 95.99208689890588
7.099999999999989 22934.025964811095 97.19078412263872
7.199999999999989 22896.435439682955 96.1656361990833
7.299999999999988 22855.796618431712 96.72535415117366
7.399999999999988 22807.662823045554 101.25843221397247
7.499999999999988 22765.330995321227 96.78638951857201
7.599999999999987 22722.055552436606 102.2881076739429
7.699999999999987 22676.709539672775 95.67272739449731
7.7999999999999865 22623.516932527353 101.41247140766907
7.899999999999986 22582.772268133547 100.77124685336898
7.999999999999986 22543.421114538844 103.96172098346788
