# Rounds: 5000, repetitions: 1000
# Good arm ~ N(5.0,0.0), 19 bad arm(s) ~ N(0.0,0.0)
# Observation noise range from 0.5 to 8.0 with step size 0.1

# Observation noise | mean | standard deviation

0.5 24909.825000000004 1.243350683001755
0.6 24909.74000000001 1.478034026869664
0.7 24909.62500000001 1.8941919023591467
0.7999999999999999 24909.50000000002 2.191986497404764
0.8999999999999999 24909.344999999983 2.5889530080087595
0.9999999999999999 24909.040000000023 3.5200555096177775
1.0999999999999999 24908.159999999993 4.836092202159448
1.1999999999999997 24904.905000000035 5.966705672025065
1.2999999999999996 24895.57499999995 8.23481555271201
1.3999999999999995 24876.319999999985 11.012669017040215
1.4999999999999993 24850.200000000008 10.68288931535492
1.5999999999999992 24827.645000000008 8.037012415603819
1.699999999999999 24815.15500000001 5.289513583870786
1.799999999999999 24807.07999999998 6.376853790409908
1.8999999999999988 24796.085000000003 8.88688650494377
1.9999999999999987 24780.985 10.85691704157525
2.0999999999999988 24760.360000000004 11.412740716000277
2.199999999999999 24739.139999999974 10.93526314178042
2.299999999999999 24720.249999999993 10.556938426880757
2.399999999999999 24701.710000000003 10.730379352149711
2.499999999999999 24683.205000000005 11.275198672533607
2.599999999999999 24663.159999999985 12.209154903737769
2.6999999999999993 24641.50000000002 12.395711099152537
2.7999999999999994 24620.239999999987 12.97153270283284
2.8999999999999995 24598.16999999999 12.566185141442332
2.9999999999999996 24575.504999999997 13.910912568501287
3.0999999999999996 24552.870000000017 13.852978199831508
3.1999999999999997 24529.510000000028 14.488610003027139
3.3 24504.899999999998 14.923562333193491
3.4 24480.659999999993 14.706484307293938
3.5 24456.105000000007 16.110975716527527
3.6 24430.659999999996 16.360992698552256
3.7 24405.11999999999 16.069967138853862
3.8000000000000003 24378.695000000025 16.330605122397134
3.9000000000000004 24353.20499999998 16.920084641167307
4.0 24324.300000000007 18.34929689924657
4.1 24297.175000000003 17.502877641283174
4.199999999999999 24268.345 18.745329081196893
4.299999999999999 24240.91500000001 19.500462636641288
4.399999999999999 24212.615 19.64746288449984
4.499999999999998 24182.875000000004 19.416136622957698
4.599999999999998 24153.014999999996 20.61819305576715
4.6999999999999975 24123.869999999995 21.05389195294677
4.799999999999997 24091.420000000013 21.216355335771595
4.899999999999997 24062.860000000033 21.626097384597305
4.9999999999999964 24030.270000000033 22.28730185158859
5.099999999999996 23999.335000000014 23.019832486090976
5.199999999999996 23967.225000000017 22.57950861310335
5.299999999999995 23933.820000000003 23.1482924520027
5.399999999999995 23903.315 23.03402573023968
5.499999999999995 23869.370000000006 25.33268333289709
5.599999999999994 23836.029999999984 25.059271080122517
5.699999999999994 23803.170000000006 24.54492928393866
5.799999999999994 23768.84500000001 25.876834922099462
5.899999999999993 23733.775000000005 25.43267968964731
5.999999999999993 23700.670000000027 26.353284341720958
6.0999999999999925 23664.585000000017 26.366607157026685
6.199999999999992 23627.665000000015 27.45772571976231
6.299999999999992 23592.45000000003 27.39065073611334
6.3999999999999915 23556.87500000002 28.501257809028296
6.499999999999991 23520.12500000001 29.104233909028284
6.599999999999991 23484.39999999999 28.118154822652052
6.69999999999999 23445.67000000005 29.73946091534844
6.79999999999999 23409.140000000018 29.835390906615395
6.89999999999999 23371.06500000001 30.150453144601773
6.999999999999989 23331.859999999993 31.417789188252613
7.099999999999989 23293.380000000005 31.93580272195274
7.199999999999989 23255.975000000017 31.049773967993087
7.299999999999988 23216.85999999999 31.895261524366102
7.399999999999988 23177.164999999997 33.20376884128167
7.499999999999988 23136.469999999976 33.23316932739851
7.599999999999987 23097.46500000001 32.91553139791606
7.699999999999987 23056.884999999995 34.75600314700678
7.7999999999999865 23017.630000000026 34.53296433301986
7.899999999999986 22976.80500000003 34.25259428445122
7.999999999999986 22932.824999999983 35.072417217087285
