# Rounds: 5000, repetitions: 1000
# Good arm ~ N(5.0,1.0), 19 bad arm(s) ~ N(4.5,1.0)
# Observation noise range from 0.5 to 8.0 with step size 0.1

# Observation noise | mean | standard deviation

0.5 24739.373719718693 503.66833463901287
0.6 24767.568424050467 367.8114139813707
0.7 24764.646724110382 288.82239265122274
0.7999999999999999 24739.496611377806 220.37933691354644
0.8999999999999999 24715.984406127045 158.8515191411165
0.9999999999999999 24680.22276370272 99.47245409434669
1.0999999999999999 24630.387581854404 99.52922817519816
1.1999999999999997 24579.70748940906 105.48546041978393
1.2999999999999996 24530.576268440942 103.40794618859134
1.3999999999999995 24470.19462429429 99.29618927731548
1.4999999999999993 24414.707017563873 101.79192813104605
1.5999999999999992 24357.648198646828 107.952101282447
1.699999999999999 24305.747054568375 105.86756107335809
1.799999999999999 24245.394503815423 107.7154883443226
1.8999999999999988 24189.222214620193 111.8197689028441
1.9999999999999987 24134.793238733317 113.38978967039357
2.0999999999999988 24079.241227440267 116.91946046302081
2.199999999999999 24011.774455327035 122.68072399237867
2.299999999999999 23960.402811083644 123.96702990514966
2.399999999999999 23908.852959379365 120.72991994482406
2.499999999999999 23852.66973907375 122.37265815948895
2.599999999999999 23804.069202397084 125.06504509041865
2.6999999999999993 23757.419956351325 126.67580943219812
2.7999999999999994 23709.369414257966 122.85533001950654
2.8999999999999995 23657.200306450824 127.99690799897535
2.9999999999999996 23608.05792772672 129.01462332907045
3.0999999999999996 23566.188321259568 127.06676310979435
3.1999999999999997 23527.686965193665 128.44418384597822
3.3 23483.030503489732 127.656773013524
3.4 23445.98296061762 126.56067453061836
3.5 23413.345892082787 127.64802937097606
3.6 23378.77103688754 119.01091084286284
3.7 23344.938697121688 122.55602728529468
3.8000000000000003 23318.67305636498 122.80637424828471
3.9000000000000004 23286.682877614043 119.35412913035496
4.0 23256.736785701007 118.21867276839014
4.1 23240.810282509497 117.4521275855975
4.199999999999999 23201.38011889985 116.80350626927775
4.299999999999999 23179.12791724372 114.50575964467421
4.399999999999999 23159.911492561154 116.25052987021289
4.499999999999998 23145.501420031407 109.28036902279538
4.599999999999998 23122.340394004248 108.40655110987802
4.6999999999999975 23099.15457795642 112.33045332779014
4.799999999999997 23088.55653859642 106.67478636217946
4.899999999999997 23070.911401249712 104.16917032741091
4.9999999999999964 23047.118442804418 102.49183038067801
5.099999999999996 23043.267731384134 106.3943208120038
5.199999999999996 23032.147831355287 101.3553138010703
5.299999999999995 23009.48668402475 100.7950377760358
5.399999999999995 23005.594886741972 100.4603562241087
5.499999999999995 22990.39781622769 90.96535227671342
5.599999999999994 22980.93332795479 95.58976047053866
5.699999999999994 22972.983328676055 98.03095513024145
5.799999999999994 22960.298766382886 92.97044895464931
5.899999999999993 22953.768305763133 96.60632219428543
5.999999999999993 22944.126992784415 93.34504746157756
6.0999999999999925 22929.69725891119 91.94076898741409
6.199999999999992 22922.694051193994 93.5565574922309
6.299999999999992 22917.49037850394 90.99940054838102
6.3999999999999915 22910.250813802937 90.38164971844465
6.499999999999991 22906.280544663554 88.54570990469296
6.599999999999991 22901.272368592716 85.66823294388995
6.69999999999999 22898.783974218135 86.31089241897061
6.79999999999999 22889.62996291223 88.30270933233311
6.89999999999999 22883.8555456799 84.98973383303255
6.999999999999989 22873.650417545217 83.29662141460761
7.099999999999989 22869.65419132867 85.93136140007132
7.199999999999989 22864.166516956702 84.16726606770493
7.299999999999988 22861.80628580426 84.99107371663658
7.399999999999988 22855.196423055142 85.62784951812532
7.499999999999988 22851.035881596865 81.90740978589601
7.599999999999987 22847.1548094167 83.29026619276512
7.699999999999987 22848.56970070414 81.54377211798459
7.7999999999999865 22839.047427107842 83.07498157874097
7.899999999999986 22836.20982443486 81.56449303554001
7.999999999999986 22833.705860732916 80.71659816974896
