# Rounds: 5000, repetitions: 1000
# Good arm ~ N(5.0,0.0), 19 bad arm(s) ~ N(2.0,0.0)
# Observation noise range from 0.5 to 8.0 with step size 0.1

# Observation noise | mean | standard deviation

0.5 24946.590000000037 3.494010318832496
0.6 24946.253999999986 4.557219794156517
0.7 24944.895 5.534311484150805
0.7999999999999999 24938.01900000001 7.021248958478585
0.8999999999999999 24918.18000000001 7.248733968366051
0.9999999999999999 24896.870999999996 4.9838938791068506
1.0999999999999999 24887.055 3.755806315703864
1.1999999999999997 24875.969999999994 5.835507960165301
1.2999999999999996 24858.33599999999 7.1037713622812335
1.3999999999999995 24838.41299999998 6.162337657529452
1.4999999999999993 24820.815000000006 6.646122624955542
1.5999999999999992 24802.03200000001 7.258213117404078
1.699999999999999 24781.512000000035 7.62640269183437
1.799999999999999 24760.58700000002 7.856344770512063
1.8999999999999988 24739.332000000042 8.719277596326496
1.9999999999999987 24716.816999999995 8.544150836303967
2.0999999999999988 24693.906000000028 9.329212088820702
2.199999999999999 24670.022999999976 9.657522391314386
2.299999999999999 24646.236000000008 9.825621957252755
2.399999999999999 24620.552999999993 10.469517744471505
2.499999999999999 24595.128 10.709356017347917
2.599999999999999 24569.24399999999 11.363960735747254
2.6999999999999993 24542.151000000005 11.893260639902232
2.7999999999999994 24514.95000000001 11.967485981638895
2.8999999999999995 24487.07399999999 12.95933904442931
2.9999999999999996 24458.520000000008 12.761993122881172
3.0999999999999996 24429.70799999999 13.143115212059826
3.1999999999999997 24399.93300000002 13.973036776476091
3.3 24370.073999999986 14.317454854600088
3.4 24339.489000000016 14.573340772151884
3.5 24308.393999999935 14.78774632732938
3.6 24275.930999999968 15.53156361956111
3.7 24245.64900000003 15.801502665458287
3.8000000000000003 24212.289000000015 15.797944614855936
3.9000000000000004 24180.264 17.00563128776752
4.0 24146.163000000008 16.994741900136425
4.1 24113.226000000006 17.518956528224955
4.199999999999999 24079.05300000002 18.6121627868339
4.299999999999999 24044.355000000058 18.22402507927618
4.399999999999999 24009.924000000003 18.84482293234279
4.499999999999998 23974.920000000006 19.676299366414415
4.599999999999998 23938.11299999998 19.61874425456757
4.6999999999999975 23901.708 21.312835873552206
4.799999999999997 23865.67799999998 20.16261011989388
4.899999999999997 23829.665999999965 20.95914429860457
4.9999999999999964 23793.59400000001 22.629566086455597
5.099999999999996 23754.90299999996 22.18318472818288
5.199999999999996 23718.17399999999 22.44244610971332
5.299999999999995 23679.94799999999 23.359344060888272
5.399999999999995 23640.426000000007 23.567009312340094
5.499999999999995 23602.871999999978 24.419867852753537
5.599999999999994 23561.249999999978 23.58719686304114
5.699999999999994 23522.71500000002 24.934504296346223
5.799999999999994 23482.56600000002 24.968722055425342
5.899999999999993 23443.725 25.934493883108182
5.999999999999993 23402.850000000006 25.781042689584293
6.0999999999999925 23362.046999999977 26.01163963298714
6.199999999999992 23322.29399999999 26.36309118021966
6.299999999999992 23281.274999999994 26.01703790329052
6.3999999999999915 23239.248 27.39845198494204
6.499999999999991 23197.58999999999 27.697058093361132
6.599999999999991 23156.514000000017 28.289009740039806
6.69999999999999 23113.764000000003 29.6228935085657
6.79999999999999 23071.722000000016 28.763797942414907
6.89999999999999 23028.258 29.762514061201898
6.999999999999989 22985.381999999983 30.071321227381322
7.099999999999989 22942.104000000018 30.0292014035828
7.199999999999989 22898.18099999999 31.090752224317114
7.299999999999988 22855.194000000003 31.683911283713673
7.399999999999988 22811.985000000026 32.0558317838011
7.499999999999988 22765.878000000008 32.96983661054644
7.599999999999987 22722.06599999999 32.914510614757816
7.699999999999987 22678.917000000034 33.29403255245004
7.7999999999999865 22635.243000000035 33.80447742080463
7.899999999999986 22590.162000000008 34.18380154822294
7.999999999999986 22545.074999999993 36.94290396210286
