# Rounds: 10000, repetitions: 1000
# Good arm ~ N(5.0,1.0), 19 bad arm(s) ~ N(1.0,1.0)
# Observation noise range from 0.5 to 8.0 with step size 0.1

# Observation noise | mean | standard deviation

0.5 49924.69308916655 100.58636574767672
0.6 49921.151885826395 100.2625351569251
0.7 49921.17293420456 100.50535644162544
0.7999999999999999 49911.4303468595 98.29420047632752
0.8999999999999999 49911.78018382502 97.40210471964464
0.9999999999999999 49899.605113362995 98.42958129219855
1.0999999999999999 49888.96133393277 104.6835127479277
1.1999999999999997 49871.89336068578 100.12596198160219
1.2999999999999996 49859.3874243131 100.53047251514629
1.3999999999999995 49845.29500304137 99.86659153407392
1.4999999999999993 49826.25546100621 98.97390686240057
1.5999999999999992 49804.7625229759 101.85078590720107
1.699999999999999 49785.09828536188 101.75011652405165
1.799999999999999 49768.561000196714 102.78475130782374
1.8999999999999988 49748.98742868554 95.75338881832607
1.9999999999999987 49729.76855633604 97.5032456760366
2.0999999999999988 49706.6539679376 102.65181579960253
2.199999999999999 49681.94396050456 99.06916164674024
2.299999999999999 49660.590518805984 102.12542709453223
2.399999999999999 49635.03063219032 101.45330500343677
2.499999999999999 49617.97713191204 100.06800414133257
2.599999999999999 49585.1219801465 104.43515401747477
2.6999999999999993 49558.56402651824 103.89530782554355
2.7999999999999994 49532.00958048985 101.75088758079735
2.8999999999999995 49509.035936306616 103.11130400879756
2.9999999999999996 49480.303010860334 107.1230587190605
3.0999999999999996 49451.20784323296 98.43118580935806
3.1999999999999997 49419.279442410654 103.4731629223204
3.3 49388.36467671415 103.00625689584481
3.4 49363.11450277182 104.40450123291959
3.5 49329.178545648785 103.66784837431177
3.6 49297.32603235678 102.20827681414161
3.7 49264.47522871954 101.05203432658027
3.8000000000000003 49236.11604410344 103.64982613328716
3.9000000000000004 49195.362779937124 102.80987772040527
4.0 49165.22667213237 105.37019205270424
4.1 49131.979453877495 104.84331399072659
4.199999999999999 49093.84655707936 105.33860595584004
4.299999999999999 49057.02359209668 104.71602245071679
4.399999999999999 49021.73930022206 100.2283573463753
4.499999999999998 48987.858959459605 103.80044519528096
4.599999999999998 48948.276088139995 104.39424354991863
4.6999999999999975 48917.20071193289 110.34304045866182
4.799999999999997 48878.13735394323 104.96707336739256
4.899999999999997 48839.907463945114 105.72734836901213
4.9999999999999964 48801.37023527898 110.0815115683611
5.099999999999996 48764.10846762098 110.94584275541365
5.199999999999996 48717.481775920955 107.83383662724768
5.299999999999995 48681.496984562174 109.01371205136995
5.399999999999995 48643.52928268975 110.747813018831
5.499999999999995 48596.54815307251 110.85443480791284
5.599999999999994 48553.89294048342 111.66311766814732
5.699999999999994 48512.55309848854 109.00162920277401
5.799999999999994 48477.56505306007 113.97408108473668
5.899999999999993 48425.68558007663 109.74585090758895
5.999999999999993 48380.76554905028 107.1115620723607
6.0999999999999925 48333.148410336886 112.42510417498494
6.199999999999992 48298.37520090339 113.83477833577076
6.299999999999992 48264.687411741834 111.21857461281664
6.3999999999999915 48209.82876776516 117.16658316177218
6.499999999999991 48160.445790446574 114.02729544767155
6.599999999999991 48124.493430352806 115.54606546054961
6.69999999999999 48073.70171408206 114.08404052403228
6.79999999999999 48035.78747903496 117.13659471860929
6.89999999999999 47981.87972405566 116.11128030489857
6.999999999999989 47929.039370579034 115.95892790948452
7.099999999999989 47887.147068885395 110.95472447060878
7.199999999999989 47840.1721485401 121.3394597295938
7.299999999999988 47787.84859024582 114.93481825090727
7.399999999999988 47737.842498508944 119.62668623837905
7.499999999999988 47688.988480041495 113.02361327362458
7.599999999999987 47645.578233305816 114.37424778935133
7.699999999999987 47597.041312877824 118.90077533817502
7.7999999999999865 47546.647319633 119.44507511285765
7.899999999999986 47497.72115747744 117.72636761141695
7.999999999999986 47446.900586649324 120.40257312698918
