# Rounds: 10000, repetitions: 1000
# Good arm ~ N(5.0,0.0), 19 bad arm(s) ~ N(1.0,0.0)
# Observation noise range from 0.5 to 8.0 with step size 0.1

# Observation noise | mean | standard deviation

0.5 49928.464000000036 2.4212737487873146
0.6 49928.35599999998 2.3577155941340697
0.7 49927.992000000006 3.2573833895546414
0.7999999999999999 49927.69600000004 4.017427500742711
0.8999999999999999 49926.29599999999 4.777364043822459
0.9999999999999999 49918.95199999997 6.774924028769225
1.0999999999999999 49898.43999999996 9.26564904646475
1.1999999999999997 49869.37600000001 7.726209828778745
1.2999999999999996 49853.58400000002 3.9953606729438813
1.3999999999999995 49846.92400000005 4.7616065457885774
1.4999999999999993 49834.80400000003 7.295945094010486
1.5999999999999992 49814.815999999984 8.800658815997659
1.699999999999999 49791.4 8.287139233576191
1.799999999999999 49771.799999999996 7.591154432997979
1.8999999999999988 49753.92399999995 8.502382872731229
1.9999999999999987 49733.17200000002 9.40866297297
2.0999999999999988 49709.703999999976 9.870451347826533
2.199999999999999 49686.74399999998 9.929403660696623
2.299999999999999 49663.51999999993 9.954531264338627
2.399999999999999 49639.48000000004 11.240994616134396
2.499999999999999 49614.52799999999 11.083503961295857
2.599999999999999 49589.81200000003 10.715945478000846
2.6999999999999993 49563.00800000003 11.917632565487489
2.7999999999999994 49536.58399999998 12.356521663786657
2.8999999999999995 49508.16400000002 12.582663765174138
2.9999999999999996 49480.371999999945 12.648066634454127
3.0999999999999996 49451.89600000003 13.210135945238763
3.1999999999999997 49422.135999999955 14.218849449926534
3.3 49393.59200000002 13.917587263431566
3.4 49362.37600000005 14.912847381268882
3.5 49331.07599999997 15.503631399984654
3.6 49299.607999999986 15.521831826922261
3.7 49267.58399999994 16.20622058302251
3.8000000000000003 49234.92400000004 16.33563825129222
3.9000000000000004 49201.49599999995 16.98406436759015
4.0 49167.83200000005 17.071590881204248
4.1 49133.352 17.28950615324284
4.199999999999999 49098.31200000002 17.720515587100593
4.299999999999999 49063.156 18.911512612937745
4.399999999999999 49026.636000000006 18.577099144177975
4.499999999999998 48991.16400000007 20.21082832497406
4.599999999999998 48953.675999999985 19.436893188388478
4.6999999999999975 48917.359999999935 19.330081532472807
4.799999999999997 48878.876000000026 20.399626682093245
4.899999999999997 48840.47599999996 20.870289719910456
4.9999999999999964 48801.13999999999 21.51341970090364
5.099999999999996 48762.98400000001 21.047630430686436
5.199999999999996 48722.8759999999 22.134736740484875
5.299999999999995 48682.14400000004 22.67274393004349
5.399999999999995 48641.93200000006 23.859686935512425
5.499999999999995 48600.972000000016 23.374207357032663
5.599999999999994 48559.87199999997 24.66755164389247
5.699999999999994 48517.295999999995 24.39400441607411
5.799999999999994 48474.816 25.57835796911918
5.899999999999993 48431.776000000005 25.347037229157383
5.999999999999993 48388.43999999999 25.8606104176054
6.0999999999999925 48344.44399999999 26.584160351261293
6.199999999999992 48302.74799999995 25.702706571976417
6.299999999999992 48257.148 27.194662080004626
6.3999999999999915 48212.716000000044 27.588847175778664
6.499999999999991 48167.208 27.181014395043228
6.599999999999991 48122.424000000035 28.373954699782445
6.69999999999999 48076.85199999992 29.136558393795337
6.79999999999999 48029.97999999999 29.08631316639506
6.89999999999999 47983.067999999956 28.704064159963465
6.999999999999989 47936.19599999998 29.511497971341473
7.099999999999989 47888.08000000003 30.0195731944137
7.199999999999989 47839.22 31.144977277397427
7.299999999999988 47792.41600000005 31.05426397954565
7.399999999999988 47744.13199999996 30.535536592550606
7.499999999999988 47697.116 32.89834106523974
7.599999999999987 47646.936000000016 31.712861895603222
7.699999999999987 47597.3679999999 33.155691455252445
7.7999999999999865 47547.912000000026 33.797374432321035
7.899999999999986 47496.632000000005 34.061602557260464
7.999999999999986 47444.340000000004 35.96189174192112
