# Rounds: 10000, repetitions: 1000
# Good arm ~ N(5.0,1.0), 19 bad arm(s) ~ N(4.0,1.0)
# Observation noise range from 0.5 to 8.0 with step size 0.1

# Observation noise | mean | standard deviation

0.5 49849.90754313721 743.0592130496346
0.6 49857.04083431613 427.48843928688933
0.7 49861.462290042604 334.736338937435
0.7999999999999999 49836.27904404661 127.35404004975136
0.8999999999999999 49805.760914530045 278.1800077265439
0.9999999999999999 49778.55497958741 102.1979288543886
1.0999999999999999 49745.21934851586 107.21759495493323
1.1999999999999997 49700.98975980741 105.6094438685694
1.2999999999999996 49661.30049961088 111.70657359367156
1.3999999999999995 49613.53637270503 108.94398451903923
1.4999999999999993 49573.229965830615 106.49715651791388
1.5999999999999992 49526.99340382014 112.35040662703676
1.699999999999999 49470.52399004551 109.82305788124181
1.799999999999999 49419.86752423712 113.58727737633272
1.8999999999999988 49375.22800161283 109.0918668900597
1.9999999999999987 49314.49038314822 110.6676829757905
2.0999999999999988 49270.45137949484 115.97434072207771
2.199999999999999 49207.62635150293 116.13737388129647
2.299999999999999 49144.20605098594 115.25674120617796
2.399999999999999 49088.8447374205 110.81050206556296
2.499999999999999 49032.35285596694 114.37730295452094
2.599999999999999 48967.974710751405 117.30469966333872
2.6999999999999993 48903.48592986513 116.9609487794781
2.7999999999999994 48852.52438904075 120.24516936857238
2.8999999999999995 48785.308758455365 121.31332943818917
2.9999999999999996 48721.34008299141 123.29322388913862
3.0999999999999996 48650.98141125951 126.08438364547844
3.1999999999999997 48583.56530082543 125.52896992437651
3.3 48513.42327875049 123.83740685306711
3.4 48450.48170089097 131.6573131740725
3.5 48383.05623895602 132.5604601337542
3.6 48308.73506260276 133.43331163129028
3.7 48247.378405947726 134.71435329214134
3.8000000000000003 48169.80081017068 139.25759501874384
3.9000000000000004 48102.28429354063 138.5684198205103
4.0 48034.0768696598 139.70128342856776
4.1 47961.91002204469 142.4040593500539
4.199999999999999 47889.923917709646 141.89904521271927
4.299999999999999 47816.181762667526 141.62414474312206
4.399999999999999 47751.79327541998 146.3615561004247
4.499999999999998 47675.261067752 145.11370920143426
4.599999999999998 47603.82155160516 138.17718953998178
4.6999999999999975 47531.20629409664 146.25318896899802
4.799999999999997 47453.01592775752 145.77068039081757
4.899999999999997 47376.95054639589 150.93776981834267
4.9999999999999964 47305.072097403674 158.22891012960113
5.099999999999996 47242.94954695208 153.46081312807578
5.199999999999996 47163.66985825298 154.1996907931948
5.299999999999995 47090.0022838524 160.63578636710668
5.399999999999995 47030.90395648083 151.74062104609754
5.499999999999995 46945.437370402535 154.1648625024488
5.599999999999994 46868.07217325197 155.47837762947546
5.699999999999994 46810.53089795526 154.73593043972016
5.799999999999994 46742.72302917788 163.35159994583015
5.899999999999993 46660.777022594964 162.48197829932872
5.999999999999993 46579.74264576509 161.0601553649125
6.0999999999999925 46522.24698056419 166.83002623317955
6.199999999999992 46438.35003036125 161.47513287113114
6.299999999999992 46374.07877786953 166.52624684144803
6.3999999999999915 46309.399015396346 165.72586738919205
6.499999999999991 46230.93284670277 163.91861360867378
6.599999999999991 46160.43566026298 168.80219736691308
6.69999999999999 46093.77690498307 175.48074518830265
6.79999999999999 46023.61848290237 172.71946791043592
6.89999999999999 45950.31376027473 170.62742303534995
6.999999999999989 45888.54548803487 173.87712966076373
7.099999999999989 45823.30989365677 183.41686897016902
7.199999999999989 45744.33092547971 181.00172652335536
7.299999999999988 45687.29798919084 171.3465711636334
7.399999999999988 45621.0618605039 185.51295368906943
7.499999999999988 45547.97226608717 176.832808233771
7.599999999999987 45498.04937312102 176.89536580027303
7.699999999999987 45414.786421196135 185.6907308779437
7.7999999999999865 45361.09510195462 184.4180412747108
7.899999999999986 45296.66979249533 180.06707445914066
7.999999999999986 45232.22144484156 185.61991993129962
