# Rounds: 500, repetitions: 1000
# Good arm ~ N(5.0,0.0), 4 bad arm(s) ~ N(2.9,0.0)
# Observation noise range from 0.5 to 4.0 with step size 0.1

# Observation noise | mean | standard deviation

0.5 2493.1413000000052 5.506353079328783
0.6 2492.7170999999976 5.673692658082413
0.7 2490.8774999999982 5.802619593265096
0.7999999999999999 2488.626299999998 5.400064722668539
0.8999999999999999 2486.536799999999 4.904383624752373
0.9999999999999999 2484.3465000000033 5.080797403189022
1.0999999999999999 2482.277999999998 4.695084644585171
1.1999999999999997 2479.863000000004 4.241365367447148
1.2999999999999996 2476.719300000003 4.78417661210953
1.3999999999999995 2474.111100000001 4.563837793502913
1.4999999999999993 2471.408400000001 4.557868317931467
1.5999999999999992 2468.1240000000007 4.702037128006635
1.699999999999999 2464.9404000000036 4.393268560951935
1.799999999999999 2461.4985000000024 4.441014564303979
1.8999999999999988 2458.1784 4.895215682334768
1.9999999999999987 2454.5726999999993 5.163129149325278
2.0999999999999988 2450.9019000000017 5.134427790780438
2.199999999999999 2447.317199999998 5.247151299205729
2.299999999999999 2443.906800000001 5.522021956356745
2.399999999999999 2439.4632000000033 6.2209328694148045
2.499999999999999 2436.1431000000025 6.256927483320482
2.599999999999999 2432.1678000000006 6.499306435624021
2.6999999999999993 2428.055999999999 6.518812692424773
2.7999999999999994 2424.385199999998 6.831955545564996
2.8999999999999995 2419.9415999999974 7.294606275922002
2.9999999999999996 2415.970500000002 7.640136873213791
3.0999999999999996 2411.629799999997 7.3951484217816565
3.1999999999999997 2407.6545 8.133258242527356
3.3 2403.173100000003 8.326599464886499
3.4 2398.670699999999 8.50142139148951
3.5 2394.327900000001 8.671919844174264
3.6 2389.615500000003 9.28749413444213
3.7 2385.5289000000043 9.408654397285899
3.8000000000000003 2381.215499999996 9.831924353171466
3.9000000000000004 2376.3665999999985 10.252069516413217
4.0 2371.6920000000046 10.038890143602295
