# Rounds: 500, repetitions: 1000
# Good arm ~ N(5.0,0.0), 4 bad arm(s) ~ N(3.1,0.0)
# Observation noise range from 0.5 to 4.0 with step size 0.1

# Observation noise | mean | standard deviation

0.5 2493.6285000000007 5.694220042454656
0.6 2492.5511999999994 5.81805709394023
0.7 2490.3794999999996 5.6736213946411285
0.7999999999999999 2488.3312999999994 4.808116918118565
0.8999999999999999 2485.6997999999967 5.783714317919848
0.9999999999999999 2483.598399999997 5.303040607017818
1.0999999999999999 2481.2708999999977 4.644656717780787
1.1999999999999997 2478.7515000000008 4.585499378972194
1.2999999999999996 2475.4815999999996 4.703731128213702
1.3999999999999995 2472.5669999999996 4.710024982453421
1.4999999999999993 2469.247699999998 4.763583360920269
1.5999999999999992 2466.0461999999998 4.838282188394427
1.699999999999999 2462.6661000000013 4.676508368486112
1.799999999999999 2459.348700000001 4.908824183535722
1.8999999999999988 2455.7843 4.745372701071257
1.9999999999999987 2452.0280000000002 5.272731521488464
2.0999999999999988 2448.419900000003 5.438233939283835
2.199999999999999 2444.752899999995 5.48592079025183
2.299999999999999 2440.907300000003 5.69515157493299
2.399999999999999 2436.9191999999957 5.87691326033232
2.499999999999999 2433.1628999999994 6.289969579203686
2.599999999999999 2428.6617999999985 6.499560373213351
2.6999999999999993 2424.987199999999 6.423260420879343
2.7999999999999994 2420.638099999997 7.109707893882589
2.8999999999999995 2416.224399999998 7.376037592811687
2.9999999999999996 2412.0083 7.133442865623693
3.0999999999999996 2407.4179000000013 8.007972103298542
3.1999999999999997 2403.1638000000016 8.272171321870644
3.3 2398.803300000001 8.274607437107743
3.4 2394.024799999999 8.709494833815585
3.5 2389.968299999999 8.982902517986483
3.6 2385.0700999999995 9.641092606995192
3.7 2380.5841999999957 9.811498145332134
3.8000000000000003 2375.6631999999972 10.177601354412019
3.9000000000000004 2371.3349999999987 10.084628636431553
4.0 2366.2468000000013 10.887854478047325
