# Rounds: 500, repetitions: 1000
# Good arm ~ N(5.0,0.0), 4 bad arm(s) ~ N(1.1,0.0)
# Observation noise range from 0.5 to 4.0 with step size 0.1

# Observation noise | mean | standard deviation

0.5 2488.0935 2.9582222412843384
0.6 2487.8868000000025 3.305061147571939
0.7 2487.7425000000007 3.9492201875927693
0.7999999999999999 2487.4500000000003 4.129437280338886
0.8999999999999999 2487.262799999998 4.323418567303941
0.9999999999999999 2486.954699999998 4.835698697385128
1.0999999999999999 2486.358 4.9102613643946915
1.1999999999999997 2485.086600000001 4.815020754354563
1.2999999999999996 2482.8596999999995 5.382248090204001
1.3999999999999995 2480.2506000000008 5.194557061296308
1.4999999999999993 2477.3568000000014 5.290355528848877
1.5999999999999992 2475.0596999999975 4.830658461449222
1.699999999999999 2472.7586999999985 5.134753158624078
1.799999999999999 2470.4147999999986 4.988665928657458
1.8999999999999988 2467.9500000000007 5.036390098594985
1.9999999999999987 2465.325299999997 5.06813929819875
2.0999999999999988 2462.8058999999957 5.52679297881068
2.199999999999999 2459.787300000002 5.820779172944187
2.299999999999999 2457.100199999999 5.6470230058703805
2.399999999999999 2453.441999999996 6.051925462346856
2.499999999999999 2450.8718999999933 6.388197669097256
2.599999999999999 2447.350200000003 6.338090513029254
2.6999999999999993 2444.3628000000003 6.439633921663986
2.7999999999999994 2441.0400000000004 6.25286961149667
2.8999999999999995 2437.5807 7.138151772043063
2.9999999999999996 2434.0160999999966 7.101764981739087
3.0999999999999996 2430.6933 7.426215306856128
3.1999999999999997 2426.5085999999983 7.5521905180962
3.3 2422.9713000000006 7.8174611613368015
3.4 2419.9097999999994 7.96884724953911
3.5 2415.4013999999956 8.485577355905914
3.6 2411.454600000003 8.667080080229871
3.7 2407.6169999999943 8.972028103404998
3.8000000000000003 2403.654599999995 9.053707995538003
3.9000000000000004 2399.3684999999987 9.35474045171321
4.0 2395.2852000000007 9.6958398434726
