# Rounds: 500, repetitions: 1000
# Good arm ~ N(5.0,1.0), 4 bad arm(s) ~ N(4.1,1.0)
# Observation noise range from 0.5 to 4.0 with step size 0.1

# Observation noise | mean | standard deviation

0.5 2475.164173440162 67.92029986841173
0.6 2474.9409771410133 54.42071143397928
0.7 2475.323280213631 47.98591717400341
0.7999999999999999 2474.3316380593315 43.01642347948095
0.8999999999999999 2470.9413024727723 32.73488794836579
0.9999999999999999 2469.8862848358617 29.027289243510488
1.0999999999999999 2468.3850649322785 29.435649632594963
1.1999999999999997 2463.2523479155625 27.29740923538243
1.2999999999999996 2457.39051122049 28.646767034303465
1.3999999999999995 2452.783388714201 28.139965357743222
1.4999999999999993 2448.3500314079447 27.768513341523846
1.5999999999999992 2445.11545170037 29.0879923678791
1.699999999999999 2440.303430184155 28.323975155947295
1.799999999999999 2435.4218335503588 29.135152467336578
1.8999999999999988 2430.214601299386 29.558968670695286
1.9999999999999987 2425.804997981272 28.57204762846514
2.0999999999999988 2421.0697759805707 30.32082849318937
2.199999999999999 2416.4857625347554 31.40452070999621
2.299999999999999 2411.223368494128 32.12645004757601
2.399999999999999 2405.12652033421 31.049278827811712
2.499999999999999 2401.032702548898 32.32848497652199
2.599999999999999 2397.263490099783 32.78695019651929
2.6999999999999993 2392.2055891907385 32.758329505510936
2.7999999999999994 2388.036566154208 33.094927548824415
2.8999999999999995 2383.5258707198877 33.83154531441395
2.9999999999999996 2375.50867169761 33.30878050068906
3.0999999999999996 2371.49181498739 36.055167605163255
3.1999999999999997 2367.1417760204577 35.01199340780376
3.3 2364.4296017865054 34.45764496015779
3.4 2360.460678175748 34.53335188137984
3.5 2355.6837707260547 34.45401079647771
3.6 2348.852153201601 35.14104766675366
3.7 2347.076304869142 34.47029821166941
3.8000000000000003 2340.9234583916304 35.69882254442994
3.9000000000000004 2338.610523015669 35.112355934057746
4.0 2336.8139743481456 36.47779200103305
