# Rounds: 500, repetitions: 1000
# Good arm ~ N(5.0,0.0), 4 bad arm(s) ~ N(2.5,0.0)
# Observation noise range from 0.5 to 4.0 with step size 0.1

# Observation noise | mean | standard deviation

0.5 2491.9924999999976 5.145402697449367
0.6 2491.507500000001 5.761239939078738
0.7 2491.059999999999 5.969676459996573
0.7999999999999999 2489.6999999999966 5.7862752251324165
0.8999999999999999 2488.0125000000016 5.503306290779206
0.9999999999999999 2485.624999999994 5.070511323829671
1.0999999999999999 2483.4400000000055 4.698507845686326
1.1999999999999997 2481.3549999999977 4.452111442483899
1.2999999999999996 2478.9950000000013 4.785433666385451
1.3999999999999995 2476.305000000004 4.972091782810965
1.4999999999999993 2473.6799999999976 4.618325338142464
1.5999999999999992 2470.852499999998 4.590813579238357
1.699999999999999 2468.12 4.944952229552103
1.799999999999999 2464.99 4.873258524708958
1.8999999999999988 2461.8324999999973 4.699231482543345
1.9999999999999987 2458.722500000003 5.289349768258009
2.0999999999999988 2455.1899999999955 5.262280075365768
2.199999999999999 2452.007499999999 5.387970301883096
2.299999999999999 2448.5874999999996 5.571546992163512
2.399999999999999 2445.164999999997 5.875354865435364
2.499999999999999 2441.2475000000036 6.05385355727183
2.599999999999999 2437.8525000000004 6.4613266820748585
2.6999999999999993 2433.9249999999984 6.444835987898455
2.7999999999999994 2429.8224999999984 7.168586498214433
2.8999999999999995 2426.1975000000007 6.9889977707708395
2.9999999999999996 2422.0949999999975 7.286224266659972
3.0999999999999996 2418.5150000000017 7.333898080902204
3.1999999999999997 2414.0124999999985 7.874363425023582
3.3 2409.6499999999987 7.781423427018383
3.4 2405.667499999998 8.451012564383245
3.5 2401.084999999999 8.732785153462617
3.6 2397.407499999996 8.954209715079346
3.7 2392.9249999999993 9.256352146232071
3.8000000000000003 2388.4200000000005 9.326874642161268
3.9000000000000004 2383.7474999999995 9.708591581712598
4.0 2379.362500000001 9.706650442496287
