# Rounds: 500, repetitions: 1000
# Good arm ~ N(5.0,0.0), 4 bad arm(s) ~ N(4.7,0.0)
# Observation noise range from 0.5 to 4.0 with step size 0.1

# Observation noise | mean | standard deviation

0.5 2485.3829999999966 1.7333480595355237
0.6 2479.9784999999974 1.6168308173374508
0.7 2474.4191999999985 1.6472719462386982
0.7999999999999999 2468.905799999999 1.7935169536592632
0.8999999999999999 2463.4715999999958 1.9707047260098025
0.9999999999999999 2458.224300000001 2.16400610730014
1.0999999999999999 2453.3276999999994 2.376061526639913
1.1999999999999997 2448.6492000000057 2.543019132115611
1.2999999999999996 2444.361000000009 2.7120867269344946
1.3999999999999995 2440.2681 3.0741214375187735
1.4999999999999993 2436.503099999998 2.8760375487781724
1.5999999999999992 2433.122700000001 3.129800370688208
1.699999999999999 2430.123299999999 3.27779973169205
1.799999999999999 2427.241199999998 3.448822543555508
1.8999999999999988 2424.3612000000003 3.4680833557112583
1.9999999999999987 2422.144200000002 3.731354897268416
2.0999999999999988 2419.9265999999993 3.7060203759594317
2.199999999999999 2418.173700000006 3.5325482597137237
2.299999999999999 2416.135500000002 3.5902868840678
2.399999999999999 2414.296500000001 3.63583237058955
2.499999999999999 2412.915900000002 3.6690842685019778
2.599999999999999 2411.4258 3.8233352262457014
2.6999999999999993 2410.1448000000037 3.948955204507402
2.7999999999999994 2408.5866 3.769999115826444
2.8999999999999995 2407.6095000000037 3.998060058857722
2.9999999999999996 2406.439200000002 4.002754727110365
3.0999999999999996 2405.2302000000013 3.850560319586471
3.1999999999999997 2404.5228000000016 3.993939372563216
3.3 2403.678900000001 3.9420101768302334
3.4 2402.9733000000033 4.042533758571249
3.5 2401.9086000000016 3.96317458520204
3.6 2401.154399999999 4.0627831405141
3.7 2400.600600000005 4.279660633173375
3.8000000000000003 2399.8707000000004 4.3496840415437
3.9000000000000004 2399.2290000000007 4.342406647873288
4.0 2398.4208000000026 4.460520552985067
