# Rounds: 500, repetitions: 1000
# Good arm ~ N(5.0,1.0), 4 bad arm(s) ~ N(3.4,1.0)
# Observation noise range from 0.5 to 4.0 with step size 0.1

# Observation noise | mean | standard deviation

0.5 2485.2784994132876 40.13676972675184
0.6 2484.4472436291085 36.355374881841804
0.7 2484.3511084833535 27.250594714615296
0.7999999999999999 2483.5035507142684 31.3159145891572
0.8999999999999999 2482.245234048414 25.605455305511597
0.9999999999999999 2477.650851830318 25.342960273516955
1.0999999999999999 2476.768651475306 23.56504731952918
1.1999999999999997 2473.877686175306 24.93626378952116
1.2999999999999996 2471.471628910174 24.672312770906718
1.3999999999999995 2467.1182863443983 24.620967809839577
1.4999999999999993 2463.638758188065 24.383671865012378
1.5999999999999992 2460.917057944695 24.97455945849392
1.699999999999999 2456.217098721783 25.767772743572184
1.799999999999999 2453.0775939728733 25.053062080635428
1.8999999999999988 2450.031805051824 25.58300171923668
1.9999999999999987 2445.3867581654354 25.384874196422874
2.0999999999999988 2440.3358558074824 27.31863994052231
2.199999999999999 2437.825401802389 25.84402527930231
2.299999999999999 2434.1258416548976 26.14500324173495
2.399999999999999 2428.52462165302 27.732313553376553
2.499999999999999 2424.8660478279157 27.41606449454103
2.599999999999999 2420.058595926865 27.459057427767284
2.6999999999999993 2416.337328551972 28.526275704308027
2.7999999999999994 2412.8799189159336 28.567399809195273
2.8999999999999995 2406.9662603283764 28.743069469780533
2.9999999999999996 2401.668548412312 28.19978595859896
3.0999999999999996 2398.092117115118 29.172321585181344
3.1999999999999997 2392.995485670233 29.64217586959073
3.3 2388.938008774896 28.656467842915028
3.4 2383.4330649184235 29.615848337234922
3.5 2377.42679588804 30.502436436355776
3.6 2373.7206760962063 29.66915970599956
3.7 2370.1216410514126 29.966169972650604
3.8000000000000003 2364.9881936609154 30.830113073044167
3.9000000000000004 2360.5144577154265 32.164916246529444
4.0 2355.7410250734265 31.421192536462886
