# Rounds: 500, repetitions: 1000
# Good arm ~ N(5.0,0.0), 4 bad arm(s) ~ N(4.6,0.0)
# Observation noise range from 0.5 to 4.0 with step size 0.1

# Observation noise | mean | standard deviation

0.5 2487.5899999999997 2.244098031721388
0.6 2482.7271999999966 1.9630572466827758
0.7 2477.666399999996 1.9047359552072094
0.7999999999999999 2472.3595999999966 2.0317322106458526
0.8999999999999999 2466.9167999999972 2.307692181206862
0.9999999999999999 2461.3788 2.5748826343312596
1.0999999999999999 2456.176799999999 2.572718531173032
1.1999999999999997 2451.134799999998 2.7880319370628825
1.2999999999999996 2445.9239999999922 3.1267363944664464
1.3999999999999995 2440.8419999999937 3.4545636497263312
1.4999999999999993 2436.1223999999975 3.5775378428491473
1.5999999999999992 2431.5119999999965 3.6896978019711724
1.699999999999999 2427.3243999999913 3.8626940139035297
1.799999999999999 2423.143999999994 4.061083155563015
1.8999999999999988 2419.4999999999945 4.0409812582504285
1.9999999999999987 2415.651599999994 4.383449791211685
2.0999999999999988 2412.4107999999924 4.4483335116684595
2.199999999999999 2409.013999999994 4.534671680204542
2.299999999999999 2406.1383999999925 4.8324277333241
2.399999999999999 2402.9675999999895 4.783696687081665
2.499999999999999 2400.4431999999847 5.185586183264772
2.599999999999999 2398.106799999993 4.9385851600823765
2.6999999999999993 2395.809599999994 5.107052949581834
2.7999999999999994 2393.6147999999916 5.163367246412403
2.8999999999999995 2391.457999999989 5.416232230210805
2.9999999999999996 2389.462799999987 5.541180455538702
3.0999999999999996 2387.5271999999923 5.634654336291835
3.1999999999999997 2385.9095999999886 5.638434160277385
3.3 2384.2191999999886 5.7755093167504725
3.4 2382.789999999992 5.72593104100022
3.5 2381.2971999999886 5.843921935103745
3.6 2379.6727999999866 6.064569165172711
3.7 2378.324799999989 5.910302584186382
3.8000000000000003 2377.0115999999866 6.1270389296992676
3.9000000000000004 2375.7971999999836 6.08244920639317
4.0 2374.6187999999865 6.167093286111683
