# Rounds: 500, repetitions: 1000
# Good arm ~ N(5.0,0.0), 4 bad arm(s) ~ N(0.5,0.0)
# Observation noise range from 0.5 to 4.0 with step size 0.1

# Observation noise | mean | standard deviation

0.5 2486.1854999999964 2.571566196445772
0.6 2486.1224999999977 2.5106866186956456
0.7 2485.6229999999982 3.6586550475217914
0.7999999999999999 2485.659000000002 3.324345088926542
0.8999999999999999 2485.5465000000054 3.637281617852497
0.9999999999999999 2485.2045000000053 3.9706669396898593
1.0999999999999999 2484.9974999999968 4.316001809733371
1.1999999999999997 2484.4845 4.417071458587734
1.2999999999999996 2483.5034999999984 4.6816295672986605
1.3999999999999995 2481.735 5.2872232532520576
1.4999999999999993 2479.2555000000007 5.523583956973016
1.5999999999999992 2476.677 5.733196363333479
1.699999999999999 2473.6889999999985 5.510866415424095
1.799999999999999 2470.8404999999984 5.513593153240392
1.8999999999999988 2468.504999999999 4.882193237758076
1.9999999999999987 2466.3584999999994 5.208681033439074
2.0999999999999988 2463.7844999999984 5.280738200852788
2.199999999999999 2460.9989999999984 5.692662418008431
2.299999999999999 2458.4970000000044 5.706404652147796
2.399999999999999 2455.6305000000016 6.137213140761452
2.499999999999999 2452.557 6.100981312295008
2.599999999999999 2449.294499999999 6.501599075653669
2.6999999999999993 2446.243500000002 6.750001501501309
2.7999999999999994 2443.0035 6.606616769204572
2.8999999999999995 2439.754499999998 6.934050822629607
2.9999999999999996 2436.2085000000025 7.145161375440078
3.0999999999999996 2433.018000000002 7.560544810913934
3.1999999999999997 2429.3909999999946 7.502426634456714
3.3 2425.7955000000024 7.84451822715811
3.4 2422.4249999999975 8.017927547824465
3.5 2418.4605000000006 8.291528157655208
3.6 2414.9820000000004 8.291949857086243
3.7 2411.561999999996 8.248223395931328
3.8000000000000003 2406.639000000001 9.042507724406214
3.9000000000000004 2402.922000000001 9.134295339617134
4.0 2398.3094999999953 9.561662257951536
