# Rounds: 500, repetitions: 1000
# Good arm ~ N(5.0,1.0), 4 bad arm(s) ~ N(2.0,1.0)
# Observation noise range from 0.5 to 4.0 with step size 0.1

# Observation noise | mean | standard deviation

0.5 2487.2321329445563 22.576897401113474
0.6 2487.0382732128196 22.9672879936259
0.7 2487.3350738757017 24.374932570294103
0.7999999999999999 2488.486696546543 23.43407422806777
0.8999999999999999 2485.4666320751658 23.52213119699211
0.9999999999999999 2483.894667756404 23.391166045723804
1.0999999999999999 2482.157789194565 24.404509278276844
1.1999999999999997 2481.324752049957 22.985728661061312
1.2999999999999996 2479.252715752331 22.70969064647262
1.3999999999999995 2475.988271611503 23.192699857114427
1.4999999999999993 2473.13913124562 24.14522612473815
1.5999999999999992 2471.1211664271586 23.070096478782922
1.699999999999999 2469.0811833718103 22.97846883203391
1.799999999999999 2466.1269043601396 23.34509620600731
1.8999999999999988 2464.038054175025 23.91128987331773
1.9999999999999987 2460.502755767066 23.449407728141157
2.0999999999999988 2457.6679886528827 24.01775435673821
2.199999999999999 2453.8943047630196 25.062096134714075
2.299999999999999 2451.639101372526 25.119331532262446
2.399999999999999 2446.696115608007 25.26431050483186
2.499999999999999 2444.4616920276158 24.690388983554392
2.599999999999999 2439.8788932132575 25.339256952793537
2.6999999999999993 2436.442321012105 25.00392244243394
2.7999999999999994 2434.3465221350843 25.878189187569596
2.8999999999999995 2430.4635874973724 25.932826674982763
2.9999999999999996 2427.2137872359817 26.168481105084687
3.0999999999999996 2422.5121561426618 25.3129615756838
3.1999999999999997 2418.920483464926 26.28567811556563
3.3 2414.659529216723 26.263795285194274
3.4 2411.0027789666274 26.832282119450554
3.5 2406.387711858291 26.816599618586313
3.6 2402.101069442264 26.94812964690633
3.7 2399.0890085758974 26.506786229294324
3.8000000000000003 2395.248292880486 27.156468760436297
3.9000000000000004 2387.670075279334 28.08284787777184
4.0 2384.180870599179 27.56704301294029
