# Rounds: 500, repetitions: 1000
# Good arm ~ N(5.0,0.0), 4 bad arm(s) ~ N(2.4,0.0)
# Observation noise range from 0.5 to 4.0 with step size 0.1

# Observation noise | mean | standard deviation

0.5 2491.9895999999962 4.337222999033257
0.6 2491.3578000000007 5.596117912954916
0.7 2491.1706000000045 5.479576753856189
0.7999999999999999 2490.3931999999986 5.0588957477087435
0.8999999999999999 2488.219599999998 5.835202260883962
0.9999999999999999 2485.8302 5.3739824755620385
1.0999999999999999 2483.8048 4.758956253699403
1.1999999999999997 2481.360799999995 4.8103225008893675
1.2999999999999996 2479.436800000003 4.9258613327893865
1.3999999999999995 2476.6132 4.976089551769245
1.4999999999999993 2473.7506000000003 5.241888689874761
1.5999999999999992 2471.2416000000057 5.258067774070306
1.699999999999999 2468.516799999999 4.825378953205845
1.799999999999999 2465.6099999999974 4.563411522613823
1.8999999999999988 2462.526400000001 5.111476325899401
1.9999999999999987 2459.5442000000035 5.094640489938556
2.0999999999999988 2455.7533999999982 5.532594150851662
2.199999999999999 2452.9818000000005 5.297305938891005
2.299999999999999 2449.534199999999 5.547612672705819
2.399999999999999 2445.8265999999967 5.648429622222172
2.499999999999999 2442.4908 5.737172693105043
2.599999999999999 2438.6661999999956 6.465596762983372
2.6999999999999993 2435.522800000002 6.375425178465032
2.7999999999999994 2431.1548000000034 6.899283808996154
2.8999999999999995 2427.460200000002 7.3849789352356074
2.9999999999999996 2423.3989999999985 7.661604217080041
3.0999999999999996 2419.283200000002 7.4248694565255775
3.1999999999999997 2415.1804 7.984716120910688
3.3 2411.366199999994 8.193408906524137
3.4 2407.2738 8.303991198804894
3.5 2402.7186000000047 8.499560963754297
3.6 2398.556000000001 8.907851245604268
3.7 2394.601400000002 9.265335637983313
3.8000000000000003 2390.358199999998 9.092784584025441
3.9000000000000004 2385.8783999999987 9.4853521466177
4.0 2381.2998000000016 10.245319249614715
