# Rounds: 500, repetitions: 1000
# Good arm ~ N(5.0,0.0), 4 bad arm(s) ~ N(0.0,0.0)
# Observation noise range from 0.5 to 4.0 with step size 0.1

# Observation noise | mean | standard deviation

0.5 2484.4550000000013 1.944673946129961
0.6 2484.26 2.30384628560758
0.7 2483.9750000000013 3.111922084349008
0.7999999999999999 2484.079999999997 2.5218961041168937
0.8999999999999999 2484.1000000000017 2.7563739945075505
0.9999999999999999 2483.7350000000015 3.063357497772542
1.0999999999999999 2483.420000000001 3.6697502731203566
1.1999999999999997 2483.2900000000013 3.839354195778301
1.2999999999999996 2482.569999999997 4.451394715694721
1.3999999999999995 2481.3349999999987 5.326457185235462
1.4999999999999993 2480.215000000005 5.2350913250086695
1.5999999999999992 2478.105000000002 5.706710220568551
1.699999999999999 2474.9649999999992 5.929496937678126
1.799999999999999 2472.000000000002 6.163439623131548
1.8999999999999988 2469.335000000003 5.622667462102776
1.9999999999999987 2466.4750000000004 5.5299145522290365
2.0999999999999988 2463.935000000002 5.972976766357918
2.199999999999999 2461.514999999998 5.595630981943519
2.299999999999999 2459.055000000002 5.862281240382626
2.399999999999999 2456.4800000000046 6.21677152935897
2.499999999999999 2453.6950000000015 6.470227108752728
2.599999999999999 2450.745000000002 6.554611959371635
2.6999999999999993 2447.165000000002 7.016909006963973
2.7999999999999994 2444.0950000000016 6.9681080308452215
2.8999999999999995 2441.4099999999985 6.936137975127781
2.9999999999999996 2437.78 7.100846570798561
3.0999999999999996 2434.6650000000022 7.561080937600424
3.1999999999999997 2431.184999999998 7.872912914402001
3.3 2427.689999999997 7.9168539570069205
3.4 2423.7200000000003 8.610211131890754
3.5 2420.5 8.250337451769356
3.6 2415.960000000001 8.860412344067718
3.7 2413.0800000000017 8.75444117235587
3.8000000000000003 2408.6900000000037 9.432543287622542
3.9000000000000004 2405.0600000000063 9.065240128015231
4.0 2401.0799999999967 9.863107060195649
