# Rounds: 5000, repetitions: 1000
# Good arm ~ N(5.0,0.0), 13 bad arm(s) ~ N(4.5,0.0)
# Observation noise range from 0.5 to 8.0 with step size 0.1

# Observation noise | mean | standard deviation

0.5 24932.7905 1.792225382540346
0.6 24907.82800000002 2.147679801210706
0.7 24880.561499999996 2.4382191580460404
0.7999999999999999 24851.12150000001 2.8188532568552698
0.8999999999999999 24819.644999999997 3.1663070761535956
0.9999999999999999 24786.467499999984 3.490684550146097
1.0999999999999999 24751.292999999998 3.795399327614466
1.1999999999999997 24715.152000000024 4.261109368820871
1.2999999999999996 24677.631499999934 4.486489310846109
1.3999999999999995 24639.05700000002 5.003777451964548
1.4999999999999993 24599.482500000053 5.056333677701626
1.5999999999999992 24559.351000000002 5.438140525250581
1.699999999999999 24518.87350000001 5.756290700844875
1.799999999999999 24477.050499999983 6.068362610686279
1.8999999999999988 24435.062999999987 6.299143609270196
1.9999999999999987 24393.662000000055 6.996692769423919
2.0999999999999988 24351.171000000013 7.445447850444852
2.199999999999999 24308.832500000004 7.466186288038025
2.299999999999999 24266.07449999999 7.958456935033742
2.399999999999999 24224.457499999997 8.042302056772852
2.499999999999999 24182.714999999997 8.504063387234002
2.599999999999999 24141.987500000017 9.190950294573225
2.6999999999999993 24100.300000000007 8.924272667430301
2.7999999999999994 24059.301000000003 9.6497158515687
2.8999999999999995 24019.2375 9.62028552817656
2.9999999999999996 23980.351000000013 10.005819077687455
3.0999999999999996 23941.187000000005 10.580594500309445
3.1999999999999997 23903.75150000001 10.297112618509994
3.3 23866.795499999982 10.58392409266045
3.4 23829.468000000008 10.86169657339272
3.5 23794.69299999998 11.41192284336792
3.6 23760.647499999995 11.335805848912734
3.7 23727.499999999945 12.02279283475963
3.8000000000000003 23694.238499999974 11.34568606750344
3.9000000000000004 23663.050999999956 12.13462599951677
4.0 23631.846999999976 12.239297013774573
4.1 23602.650500000003 12.513620197226759
4.199999999999999 23574.326500000006 12.585409818130278
4.299999999999999 23546.49600000002 12.937846492823777
4.399999999999999 23520.192500000037 12.796344798034745
4.499999999999998 23495.50149999999 12.723192499423135
4.599999999999998 23470.033500000005 12.849814998493027
4.6999999999999975 23447.358500000024 13.399693262516509
4.799999999999997 23424.547000000002 12.83809205480345
4.899999999999997 23402.354999999992 13.377740427252274
4.9999999999999964 23381.092999999993 13.125533536989206
5.099999999999996 23361.488500000018 13.361892003302126
5.199999999999996 23342.171499999986 13.353038657601198
5.299999999999995 23324.210500000037 13.741042755410048
5.399999999999995 23306.108500000035 13.864746985032214
5.499999999999995 23289.984000000037 14.044963688276445
5.599999999999994 23273.5285 13.587422706525475
5.699999999999994 23257.107500000002 12.898451992925914
5.799999999999994 23242.600000000017 13.467363137224385
5.899999999999993 23228.47250000001 13.970385299461675
5.999999999999993 23214.069499999983 13.990842126670232
6.0999999999999925 23201.327499999978 13.837882089782786
6.199999999999992 23188.600500000004 13.841431825681324
6.299999999999992 23176.756500000032 14.229667641627818
6.3999999999999915 23165.369000000017 13.623451744599704
6.499999999999991 23154.417999999983 13.745862094635063
6.599999999999991 23143.260000000035 13.427591005098437
6.69999999999999 23132.521499999995 14.0484392868531
6.79999999999999 23123.32000000001 13.418239420622513
6.89999999999999 23112.82900000002 13.991140447119063
6.999999999999989 23104.8285 13.350189710836142
7.099999999999989 23095.964999999975 14.10184871345377
7.199999999999989 23087.61599999999 13.77099067548101
7.299999999999988 23078.818000000003 13.639846825438388
7.399999999999988 23070.749499999998 13.768680994428143
7.499999999999988 23064.664999999957 13.744787891931784
7.599999999999987 23056.712000000007 13.047885012648743
7.699999999999987 23049.70950000001 13.986009731807679
7.7999999999999865 23041.941499999986 13.641789698429497
7.899999999999986 23036.02049999996 13.739290296367082
7.999999999999986 23029.627999999975 14.071571522936733
