# Rounds: 5000, repetitions: 1000
# Good arm ~ N(5.0,1.0), 13 bad arm(s) ~ N(1.0,1.0)
# Observation noise range from 0.5 to 8.0 with step size 0.1

# Observation noise | mean | standard deviation

0.5 24952.38775277609 69.78966383453262
0.6 24949.29082326095 71.84226246580198
0.7 24946.475927701984 68.40930165556466
0.7999999999999999 24947.879487807008 73.41302744082186
0.8999999999999999 24943.43442840879 68.12935498194149
0.9999999999999999 24938.087513644616 73.359686429389
1.0999999999999999 24929.642217755543 70.32984495260044
1.1999999999999997 24924.07068407997 70.82678245397886
1.2999999999999996 24911.244689697833 71.98218600801891
1.3999999999999995 24897.322124915197 72.17340615316417
1.4999999999999993 24891.16034426573 72.81490654649957
1.5999999999999992 24883.58791761963 71.37600799869034
1.699999999999999 24870.20944455498 71.74178159954046
1.799999999999999 24856.924676167488 70.171878979234
1.8999999999999988 24843.71351350838 72.98148876730197
1.9999999999999987 24831.349679389798 72.66900679315468
2.0999999999999988 24819.870959729094 70.59921842828557
2.199999999999999 24803.574196999994 71.60700251286883
2.299999999999999 24795.869703391607 67.97152399686074
2.399999999999999 24773.17480787256 76.0098355716906
2.499999999999999 24756.973169609944 73.4698969994097
2.599999999999999 24744.860700041765 73.31729961232213
2.6999999999999993 24729.360126529267 71.5995279003624
2.7999999999999994 24714.264747863268 75.34768650313147
2.8999999999999995 24693.5469719916 73.66401279842924
2.9999999999999996 24677.753807367557 72.73718445628604
3.0999999999999996 24665.944030556624 75.48184143672508
3.1999999999999997 24642.020669420242 72.9966712898892
3.3 24621.812210323544 73.10938659487982
3.4 24606.59798660481 77.57654708980797
3.5 24591.740999087364 74.85580880886982
3.6 24570.709870150113 79.90582193325241
3.7 24550.038233470274 74.8308082445865
3.8000000000000003 24534.065373994505 74.58716513539922
3.9000000000000004 24504.28749177415 75.3237405768039
4.0 24488.765614650543 79.05766795347874
4.1 24467.690433832817 73.43270987222945
4.199999999999999 24444.9860881634 73.88366357183898
4.299999999999999 24425.180465757658 76.74385660940402
4.399999999999999 24405.702770887565 77.42326421118577
4.499999999999998 24388.797883268468 78.02527728447758
4.599999999999998 24362.443579634146 79.57161461543035
4.6999999999999975 24343.19865195367 75.54091061598157
4.799999999999997 24318.525208761836 73.79199710767249
4.899999999999997 24295.05772181522 79.05560871614689
4.9999999999999964 24269.04343548596 79.42474570751851
5.099999999999996 24245.29030324288 77.33624607131244
5.199999999999996 24224.505476257644 81.02743006782904
5.299999999999995 24202.571882892214 78.7992105566609
5.399999999999995 24169.960754767922 79.02289571269151
5.499999999999995 24149.64364268865 78.23827258265518
5.599999999999994 24129.627259899353 81.63713820223609
5.699999999999994 24104.26611851311 80.44562198811307
5.799999999999994 24075.71097436601 80.46698840707708
5.899999999999993 24056.908843940513 79.07407075365478
5.999999999999993 24033.15232753608 81.82265741710079
6.0999999999999925 23999.929944154217 84.17361081924989
6.199999999999992 23971.113987714332 85.08860200157025
6.299999999999992 23950.920495807026 82.97234886642954
6.3999999999999915 23921.789378755177 83.4713543436244
6.499999999999991 23898.529035547246 81.75662717842867
6.599999999999991 23868.9858234477 80.33280522506139
6.69999999999999 23844.2219178224 82.48818560372112
6.79999999999999 23814.20456708865 83.52273524979344
6.89999999999999 23783.254808817583 84.3551650025004
6.999999999999989 23760.082607899516 86.51060315417728
7.099999999999989 23728.400911436005 85.04655561013473
7.199999999999989 23700.096581389247 83.48374244895841
7.299999999999988 23671.826149107466 84.1917626516132
7.399999999999988 23642.068540085864 85.32588466665013
7.499999999999988 23614.636503295456 86.29042085572621
7.599999999999987 23587.6444738023 89.44747742512193
7.699999999999987 23558.690019439084 86.08964906152728
7.7999999999999865 23526.43980684987 87.53078165061305
7.899999999999986 23491.869280694304 85.78947297666693
7.999999999999986 23467.2892647522 87.83143030359577
