# Rounds: 5000, repetitions: 1000
# Good arm ~ N(5.0,0.0), 13 bad arm(s) ~ N(0.0,0.0)
# Observation noise range from 0.5 to 8.0 with step size 0.1

# Observation noise | mean | standard deviation

0.5 24939.77999999999 1.2661766082198926
0.6 24939.709999999977 1.5225696103030082
0.7 24939.50000000001 2.3141640726956583
0.7999999999999999 24939.31499999999 2.581169780823685
0.8999999999999999 24939.17500000002 2.748076950692446
0.9999999999999999 24939.034999999996 2.9837355240834778
1.0999999999999999 24938.544999999987 3.495739577713837
1.1999999999999997 24935.93000000001 5.3585272056614786
1.2999999999999996 24929.07499999998 7.498373196940874
1.3999999999999995 24915.90499999998 9.50243501799786
1.4999999999999993 24897.730000000003 9.15045522533341
1.5999999999999992 24883.179999999997 6.509990781865973
1.699999999999999 24874.86000000002 4.500072293936033
1.799999999999999 24869.289999999983 5.529600028616525
1.8999999999999988 24861.804999999942 7.208948879271145
1.9999999999999987 24851.25 8.917231465932518
2.0999999999999988 24836.764999999967 9.402030268679932
2.199999999999999 24822.11499999998 8.987911746204341
2.299999999999999 24809.464999999993 8.325147631308667
2.399999999999999 24796.614999999994 8.89639932337349
2.499999999999999 24784.23499999999 9.280404134567686
2.599999999999999 24770.420000000027 10.5704936183386
2.6999999999999993 24755.30000000002 10.854852731742987
2.7999999999999994 24740.86999999999 10.485850134970072
2.8999999999999995 24725.33000000003 10.10164061641196
2.9999999999999996 24710.329999999987 11.070847468178037
3.0999999999999996 24694.48499999997 11.434181890958081
3.1999999999999997 24678.514999999974 12.489025212191278
3.3 24661.744999999995 11.8773332884973
3.4 24645.44499999998 12.713717537117759
3.5 24627.309999999998 12.478766750749731
3.6 24609.675000000014 13.198241116473412
3.7 24591.63 14.270485161575545
3.8000000000000003 24574.305000000008 13.417227619631392
3.9000000000000004 24556.42500000003 14.843001370669315
4.0 24537.37000000002 14.192763456583577
4.1 24518.749999999985 15.242041195975515
4.199999999999999 24499.555000000015 15.848600984098002
4.299999999999999 24479.27999999998 15.666110781780716
4.399999999999999 24460.26499999998 15.849478886732609
4.499999999999998 24440.53999999998 16.639870350615222
4.599999999999998 24418.989999999983 16.67807117319198
4.6999999999999975 24398.529999999966 17.5683735088866
4.799999999999997 24377.515000000025 18.092183453140873
4.899999999999997 24355.265000000007 17.69937973611072
4.9999999999999964 24334.320000000025 17.662093577759926
5.099999999999996 24314.21999999999 18.764159818486245
5.199999999999996 24290.995000000014 19.331546334519704
5.299999999999995 24268.42499999998 19.98358623267404
5.399999999999995 24246.019999999968 19.6671400156809
5.499999999999995 24222.55999999996 19.89829998623859
5.599999999999994 24199.620000000014 20.48719906003068
5.699999999999994 24176.100000000002 20.20515400209182
5.799999999999994 24152.68000000001 20.809869068560964
5.899999999999993 24130.324999999993 21.864295607735
5.999999999999993 24106.175000000003 22.301159537493085
6.0999999999999925 24081.054999999993 22.252126463152404
6.199999999999992 24056.074999999993 22.555001731392206
6.299999999999992 24030.799999999996 22.916919190527885
6.3999999999999915 24006.305000000015 23.420514415688878
6.499999999999991 23981.38 23.715143010490326
6.599999999999991 23955.434999999972 23.45817684861853
6.69999999999999 23929.875000000033 25.584447207999958
6.79999999999999 23903.500000000007 25.724730547894236
6.89999999999999 23878.269999999997 25.764722411097626
6.999999999999989 23852.410000000014 25.517504639816277
7.099999999999989 23824.159999999985 26.140538015269062
7.199999999999989 23796.399999999976 26.023397495661804
7.299999999999988 23768.639999999978 28.02205623496679
7.399999999999988 23743.574999999986 27.76265729609001
7.499999999999988 23716.55000000001 28.463268569467875
7.599999999999987 23687.27499999999 28.640349939283997
7.699999999999987 23659.89000000001 28.13146422209975
7.7999999999999865 23630.27 28.638213059603597
7.899999999999986 23602.714999999982 29.530082979917342
7.999999999999986 23573.71000000003 30.258080762854956
