# Rounds: 5000, repetitions: 1000
# Good arm ~ N(5.0,0.0), 13 bad arm(s) ~ N(1.0,0.0)
# Observation noise range from 0.5 to 8.0 with step size 0.1

# Observation noise | mean | standard deviation

0.5 24952.271999999968 2.463348145123619
0.6 24952.260000000017 2.5208638905650305
0.7 24951.875999999986 3.3911832926169128
0.7999999999999999 24951.712000000018 3.4757930227701217
0.8999999999999999 24950.888 4.834338302893927
0.9999999999999999 24948.635999999988 5.107405367658791
1.0999999999999999 24939.456 6.564995290414422
1.1999999999999997 24923.66799999999 7.830139659487942
1.2999999999999996 24908.479999999978 5.737117265187669
1.3999999999999995 24899.983999999997 4.111526316180931
1.4999999999999993 24894.18799999998 5.292321292652664
1.5999999999999992 24885.392000000018 6.742387989117497
1.699999999999999 24872.78799999999 7.819987737088007
1.799999999999999 24859.175999999985 7.510621374655582
1.8999999999999988 24846.316000000053 6.816054768163429
1.9999999999999987 24833.807999999986 7.369765901943624
2.0999999999999988 24820.76800000001 7.9544609779324205
2.199999999999999 24806.74800000001 8.43846571976829
2.299999999999999 24791.907999999974 8.29338991705544
2.399999999999999 24777.675999999963 8.663606759432328
2.499999999999999 24762.588000000036 9.454715630184085
2.599999999999999 24747.175999999996 9.419647220238872
2.6999999999999993 24731.29200000004 9.42866033090782
2.7999999999999994 24714.46799999998 10.659390160726733
2.8999999999999995 24698.01200000001 10.57239952099963
2.9999999999999996 24681.87600000001 10.878555371324158
3.0999999999999996 24664.10400000002 11.591874548818971
3.1999999999999997 24646.16800000001 12.026487950038083
3.3 24627.732000000007 11.808624797986324
3.4 24609.255999999998 12.176811517747112
3.5 24591.15999999999 12.649363873586855
3.6 24572.572000000004 13.132146407547667
3.7 24552.66399999999 13.543652924323398
3.8000000000000003 24532.615999999998 13.56364687377695
3.9000000000000004 24513.496000000017 14.039340692749375
4.0 24493.172000000017 14.099972525690374
4.1 24472.492000000013 14.577875375048697
4.199999999999999 24450.475999999995 14.815428475778848
4.299999999999999 24430.1 15.646431248396786
4.399999999999999 24407.471999999998 15.812756219560807
4.499999999999998 24387.09600000001 15.763733037554116
4.599999999999998 24364.815999999988 16.20681353026562
4.6999999999999975 24342.323999999986 16.28152671318355
4.799999999999997 24319.036 17.355919218869793
4.899999999999997 24296.543999999994 18.040552251123707
4.9999999999999964 24274.199999999986 18.160446079372722
5.099999999999996 24249.656000000028 18.01749966821971
5.199999999999996 24226.66000000001 18.761140167387964
5.299999999999995 24202.644000000048 19.20630485403549
5.399999999999995 24178.524000000005 19.07315414946369
5.499999999999995 24155.471999999976 19.396325255919823
5.599999999999994 24131.087999999996 20.639434155088516
5.699999999999994 24103.19599999998 20.600630329433166
5.799999999999994 24079.055999999953 20.59060069150098
5.899999999999993 24055.19600000001 21.21121164619094
5.999999999999993 24028.06399999998 21.429678838823936
6.0999999999999925 24002.83599999998 21.527018291359397
6.199999999999992 23977.555999999986 21.913170721076686
6.299999999999992 23949.01199999999 23.00541469100493
6.3999999999999915 23923.77200000003 23.218766701251113
6.499999999999991 23897.732000000058 22.936570411948352
6.599999999999991 23869.859999999993 23.432316860982137
6.69999999999999 23842.87599999998 23.691388855571603
6.79999999999999 23815.039999999986 24.71601264931862
6.89999999999999 23787.779999999966 25.10182666065756
6.999999999999989 23759.868000000013 24.866864236106135
7.099999999999989 23732.867999999995 25.679603151490138
7.199999999999989 23702.32799999999 26.15416709544508
7.299999999999988 23675.432000000026 25.261581967951283
7.399999999999988 23647.44799999996 26.24637438139176
7.499999999999988 23618.708000000024 27.16668483206533
7.599999999999987 23587.072000000007 27.24762832338339
7.699999999999987 23560.576000000015 28.609346702060666
7.7999999999999865 23528.58400000001 27.76338865754224
7.899999999999986 23498.851999999977 29.153868423316386
7.999999999999986 23468.772000000026 29.24139317944822
