# Rounds: 5000, repetitions: 1000
# Good arm ~ N(5.0,0.0), 13 bad arm(s) ~ N(4.0,0.0)
# Observation noise range from 0.5 to 8.0 with step size 0.1

# Observation noise | mean | standard deviation

0.5 24959.55200000001 2.507904620512026
0.6 24944.388 2.635602853694454
0.7 24927.787999999982 2.6721145552158077
0.7999999999999999 24909.273 2.9650062836800553
0.8999999999999999 24889.37600000001 3.3346279768129956
0.9999999999999999 24868.02799999999 3.619159338066581
1.0999999999999999 24845.50100000002 3.9323609272881677
1.1999999999999997 24821.562999999987 4.1970997899318805
1.2999999999999996 24796.894000000015 4.53931375533456
1.3999999999999995 24770.731999999975 4.823218784114935
1.4999999999999993 24743.95899999998 5.411155107701088
1.5999999999999992 24715.85399999997 5.650895204887197
1.699999999999999 24687.35400000001 5.985859546841617
1.799999999999999 24657.690000000057 6.523224084182081
1.8999999999999988 24627.317 6.435987331632383
1.9999999999999987 24596.210000000017 7.054620306413875
2.0999999999999988 24564.956999999995 7.297835940154396
2.199999999999999 24532.478999999963 7.863675756056909
2.299999999999999 24500.155999999995 7.88922707899211
2.399999999999999 24466.312999999984 8.363790049013868
2.499999999999999 24432.228999999992 8.620026906214669
2.599999999999999 24397.648999999972 9.048960309487606
2.6999999999999993 24363.421999999966 8.947288414372801
2.7999999999999994 24327.587999999992 9.729692848334109
2.8999999999999995 24292.000000000044 9.820919022701004
2.9999999999999996 24256.675000000007 10.194375915194591
3.0999999999999996 24220.521999999957 11.196109541660817
3.1999999999999997 24184.154999999988 11.176129959913709
3.3 24147.262000000013 11.523113213803775
3.4 24109.940000000035 11.626072663008962
3.5 24072.10599999999 12.449407686783752
3.6 24035.07500000002 12.87412591666395
3.7 23997.685000000027 13.060258241908762
3.8000000000000003 23959.816000000017 13.90746423908975
3.9000000000000004 23922.64499999998 13.501750711380815
4.0 23884.210999999985 14.165067176971936
4.1 23845.99499999998 14.705891276567813
4.199999999999999 23809.42300000002 15.347691116992939
4.299999999999999 23770.701999999972 15.401311515465068
4.399999999999999 23732.577000000005 15.674557817136666
4.499999999999998 23694.77499999999 15.377673681277335
4.599999999999998 23657.518 15.139976713816136
4.6999999999999975 23618.492999999995 17.018448183620507
4.799999999999997 23581.26000000001 16.9802452493694
4.899999999999997 23543.550000000017 16.862438786896757
4.9999999999999964 23506.472999999994 17.267873362126853
5.099999999999996 23468.788999999982 18.46758052725186
5.199999999999996 23431.39099999998 17.82278796290772
5.299999999999995 23394.42100000004 18.51719864465589
5.399999999999995 23356.981000000007 18.402480547205958
5.499999999999995 23320.243000000035 19.85815442827694
5.599999999999994 23285.536000000022 20.297553909145925
5.699999999999994 23247.435999999994 20.24296622735125
5.799999999999994 23213.586999999992 20.6880745219903
5.899999999999993 23177.22600000001 21.144739866549084
5.999999999999993 23141.966999999997 21.214711286627917
6.0999999999999925 23105.65999999999 20.84958285206461
6.199999999999992 23071.494000000013 21.397518964071907
6.299999999999992 23036.094999999987 23.457754394682354
6.3999999999999915 23002.301999999996 22.796457498358677
6.499999999999991 22967.928000000004 23.136856530871448
6.599999999999991 22932.98500000002 24.149202035656554
6.69999999999999 22900.724000000013 24.187907699486505
6.79999999999999 22867.267000000018 24.135912107340253
6.89999999999999 22833.47600000002 24.661541225471197
6.999999999999989 22802.45500000001 25.87882703463749
7.099999999999989 22769.717999999997 25.617586473685208
7.199999999999989 22738.833999999973 26.295663252823832
7.299999999999988 22706.404999999973 26.20900392778955
7.399999999999988 22676.149999999972 28.04417900342193
7.499999999999988 22645.42899999999 26.665558516764822
7.599999999999987 22615.93099999995 26.884698734150366
7.699999999999987 22584.08099999998 27.554522145932623
7.7999999999999865 22556.438000000002 27.00547076892859
7.899999999999986 22526.521999999975 28.621962419315995
7.999999999999986 22496.798000000017 28.12789317340311
