# Rounds: 5000, repetitions: 1000
# Good arm ~ N(5.0,1.0), 13 bad arm(s) ~ N(0.5,1.0)
# Observation noise range from 0.5 to 8.0 with step size 0.1

# Observation noise | mean | standard deviation

0.5 24944.30696199752 70.73299815130254
0.6 24940.839890923413 67.77136517037414
0.7 24943.506146417676 71.64958645427598
0.7999999999999999 24940.81723474304 71.4536427561415
0.8999999999999999 24938.66294665034 72.87561502125698
0.9999999999999999 24931.91514158397 71.79845446495423
1.0999999999999999 24934.238111797007 68.31852066704978
1.1999999999999997 24922.623544553906 72.02891112038671
1.2999999999999996 24915.082233025474 72.3271752969568
1.3999999999999995 24904.327772206856 71.79650974826058
1.4999999999999993 24897.445351762995 70.78535904398838
1.5999999999999992 24886.70901894514 66.56604179550187
1.699999999999999 24877.952517882037 69.64746612044063
1.799999999999999 24864.83075446606 72.66218695803786
1.8999999999999988 24851.858589091746 72.67680173086293
1.9999999999999987 24837.88686291201 71.84227919550003
2.0999999999999988 24823.935708303972 71.10129668836427
2.199999999999999 24811.542040585366 74.22001114457447
2.299999999999999 24800.222479048236 73.25517705899058
2.399999999999999 24786.01902562242 71.85207111169468
2.499999999999999 24774.116130325132 73.10406985335709
2.599999999999999 24757.40469824279 71.98639736115186
2.6999999999999993 24745.750748661358 76.58117790104178
2.7999999999999994 24727.640401349487 70.05039470342838
2.8999999999999995 24711.776784438367 71.69046701583243
2.9999999999999996 24698.730451701358 74.77271039701186
3.0999999999999996 24679.6241184592 71.38922290864019
3.1999999999999997 24663.37929746232 72.87181606404418
3.3 24643.014096222236 74.09290983589071
3.4 24629.10339932677 74.53830725800297
3.5 24608.63200981568 73.88116149082423
3.6 24592.62221229726 75.56050014053923
3.7 24574.833612131337 76.10108208916283
3.8000000000000003 24550.830233021185 74.50328474310939
3.9000000000000004 24537.49876545964 75.16673394888655
4.0 24517.80449498526 77.70717102280771
4.1 24493.85987195027 76.52940341639813
4.199999999999999 24475.79943823946 72.71524513939237
4.299999999999999 24453.40626898038 77.67504577731725
4.399999999999999 24436.264055321713 76.55558183256129
4.499999999999998 24416.430009839307 75.5748878605482
4.599999999999998 24393.803163144257 75.23027509317936
4.6999999999999975 24375.74093295448 75.94474594957742
4.799999999999997 24348.631159239856 78.48126312123345
4.899999999999997 24323.647291319096 77.80701411680919
4.9999999999999964 24305.03128002595 80.95486806570136
5.099999999999996 24278.64441247444 79.71471355071371
5.199999999999996 24263.111040645726 80.28011065165097
5.299999999999995 24239.911789865422 78.27950440130157
5.399999999999995 24215.019962495866 76.47928896819545
5.499999999999995 24191.080014155268 79.02938885222133
5.599999999999994 24167.893804069878 77.96598523422874
5.699999999999994 24138.3358533668 77.73569490645207
5.799999999999994 24116.66481049221 80.5459556448026
5.899999999999993 24092.702027054827 79.89173074866903
5.999999999999993 24077.67397884677 79.2717446560187
6.0999999999999925 24042.208993393768 76.88564754186812
6.199999999999992 24018.215697215364 81.44837801352064
6.299999999999992 23994.384463711976 77.77094129080275
6.3999999999999915 23971.251912402713 79.57089189613029
6.499999999999991 23939.349525633756 81.24348788501935
6.599999999999991 23915.46906315664 80.90137369576493
6.69999999999999 23890.299608122725 84.57797534027998
6.79999999999999 23858.270506401946 83.50807276077151
6.89999999999999 23836.370422059863 80.28483690697698
6.999999999999989 23810.659641140537 83.54688106632835
7.099999999999989 23778.597445892323 81.54365597819576
7.199999999999989 23757.59787879254 86.43649835569933
7.299999999999988 23730.7827723227 81.09687736464484
7.399999999999988 23700.293848741498 85.24568948640855
7.499999999999988 23671.77576573049 83.34949089482295
7.599999999999987 23637.576896273 87.47612210945692
7.699999999999987 23615.016425305977 84.55537887273994
7.7999999999999865 23583.424904185962 85.98783037405752
7.899999999999986 23557.361428725555 84.31682260604086
7.999999999999986 23522.065443088108 88.24306497688966
