# Rounds: 5000, repetitions: 1000
# Good arm ~ N(5.0,1.0), 13 bad arm(s) ~ N(3.0,1.0)
# Observation noise range from 0.5 to 8.0 with step size 0.1

# Observation noise | mean | standard deviation

0.5 24954.10079982044 76.63694042267086
0.6 24951.86488517739 69.99935772364626
0.7 24950.233276828723 73.56753722754831
0.7999999999999999 24934.687645771904 77.53279439725182
0.8999999999999999 24927.456866416192 72.25784138645783
0.9999999999999999 24909.64839085896 68.82186541917207
1.0999999999999999 24899.976230447835 94.00779444542565
1.1999999999999997 24886.89357528484 69.7966167646695
1.2999999999999996 24870.07119436173 73.27190965324203
1.3999999999999995 24857.786099906298 70.86733290996231
1.4999999999999993 24840.02085373072 72.39829021486827
1.5999999999999992 24824.596902933652 74.74727018377449
1.699999999999999 24805.222059317006 72.82848688339105
1.799999999999999 24786.31057523632 75.36336393272815
1.8999999999999988 24769.980893980817 72.29926420450957
1.9999999999999987 24747.524077011727 71.00552656951729
2.0999999999999988 24731.639533824797 75.786637402938
2.199999999999999 24705.575673151994 73.38574816483163
2.299999999999999 24684.328602539685 73.94104062741737
2.399999999999999 24666.135541387008 74.59404800055593
2.499999999999999 24641.967427163218 76.80751858414457
2.599999999999999 24616.743273515007 75.0599640582887
2.6999999999999993 24591.93038853821 77.63739787022094
2.7999999999999994 24570.786622895746 75.80736783853091
2.8999999999999995 24550.004256086857 79.75276139833511
2.9999999999999996 24520.094193088076 78.52310235342183
3.0999999999999996 24494.65631075612 79.83986866251972
3.1999999999999997 24471.146356279984 84.78951048319941
3.3 24445.822211701197 78.93123362105557
3.4 24417.105603564807 80.27021195250536
3.5 24389.29126042308 79.1085682886362
3.6 24366.50514371302 78.74668427478075
3.7 24340.603256170572 83.00540358287127
3.8000000000000003 24311.752474501056 81.38014558445315
3.9000000000000004 24282.570922146246 84.81618043775734
4.0 24252.82633914042 79.16167255564268
4.1 24224.965035862522 84.03579218247832
4.199999999999999 24197.87171009763 81.75915619188363
4.299999999999999 24165.725936805484 82.88345487699539
4.399999999999999 24139.933699896614 84.54969990522919
4.499999999999998 24111.534022918477 85.54304935711971
4.599999999999998 24076.347467449068 82.26951130112755
4.6999999999999975 24049.063580971702 83.518964386124
4.799999999999997 24011.35033827976 83.7214566957714
4.899999999999997 23989.845959811606 85.95213919217969
4.9999999999999964 23958.926417583592 87.66878468169112
5.099999999999996 23927.594709625013 88.55063970641888
5.199999999999996 23893.244766233005 85.77718523881684
5.299999999999995 23858.112034907143 87.49789741382503
5.399999999999995 23832.48898036952 87.50877826119132
5.499999999999995 23799.245647343443 92.19534471806456
5.599999999999994 23766.517990004264 85.95583147041825
5.699999999999994 23737.920490298748 90.43637748634525
5.799999999999994 23707.81983379806 88.63594993052587
5.899999999999993 23670.301585195175 91.62572175200414
5.999999999999993 23641.71037560177 92.11584530242193
6.0999999999999925 23611.508357998 94.4115103053214
6.199999999999992 23573.907395159946 91.64660347977727
6.299999999999992 23538.58355809004 92.38245100918786
6.3999999999999915 23512.45462255107 94.59762429597903
6.499999999999991 23477.626480238516 95.6990743990444
6.599999999999991 23442.696477186648 98.8109094470797
6.69999999999999 23404.297823987625 100.0329771925906
6.79999999999999 23377.19601469199 99.4008132085208
6.89999999999999 23336.491006098502 95.6131708155789
6.999999999999989 23305.953745249866 97.84737053760449
7.099999999999989 23275.210061410293 99.25100214006079
7.199999999999989 23237.551433797362 98.3131397312277
7.299999999999988 23201.211552184057 102.63149522950599
7.399999999999988 23173.83446622502 102.70256034020275
7.499999999999988 23134.772780690095 102.30108304806622
7.599999999999987 23102.061662873977 101.40616736303643
7.699999999999987 23062.58636521369 106.85859164967847
7.7999999999999865 23032.047021294387 106.39487162516315
7.899999999999986 22996.443132457727 105.13663886129717
7.999999999999986 22962.76213913528 103.04563872334381
