# Rounds: 5000, repetitions: 1000
# Good arm ~ N(5.0,0.0), 4 bad arm(s) ~ N(1.4,0.0)
# Observation noise range from 0.5 to 4.0 with step size 0.1

# Observation noise | mean | standard deviation

0.5 24989.008800000014 3.4932571341659355
0.6 24988.9944 3.5199828009402028
0.7 24988.656000000025 3.959361127825553
0.7999999999999999 24988.313999999995 4.515594600336622
0.8999999999999999 24987.514800000034 4.364799243084
0.9999999999999999 24984.512400000014 4.974554495874719
1.0999999999999999 24980.16359999998 4.522805634870098
1.1999999999999997 24976.379999999972 3.4948610922403898
1.2999999999999996 24974.551200000024 3.1280478326332455
1.3999999999999995 24972.023999999998 4.024358266787046
1.4999999999999993 24968.71920000001 4.363855473613931
1.5999999999999992 24964.402799999993 4.16669575485322
1.699999999999999 24960.55799999999 3.777558198883146
1.799999999999999 24956.778000000013 4.05738565807808
1.8999999999999988 24952.828799999927 4.282867440571526
1.9999999999999987 24948.447599999996 4.464372841156841
2.0999999999999988 24943.724400000006 4.573804141447601
2.199999999999999 24939.40079999998 4.596660597504311
2.299999999999999 24934.418399999995 4.907927178472016
2.399999999999999 24929.52960000001 4.928949013569983
2.499999999999999 24924.439200000023 5.092590484010593
2.599999999999999 24919.078800000014 5.336638480379573
2.6999999999999993 24913.891200000024 5.513387343547903
2.7999999999999994 24908.678399999993 5.615188668582703
2.8999999999999995 24903.573600000014 5.863002459306488
2.9999999999999996 24897.25920000001 6.142962750281379
3.0999999999999996 24891.653999999995 6.283853181830794
3.1999999999999997 24885.649199999978 6.361632630836648
3.3 24879.21599999998 6.750279273501498
3.4 24873.38759999998 6.845809765933055
3.5 24867.43679999994 6.938546619370943
3.6 24860.798399999992 7.137443557782604
3.7 24854.350799999997 7.547979289276353
3.8000000000000003 24847.5504 7.371211202684955
3.9000000000000004 24841.002000000008 7.64819003495602
4.0 24834.30239999999 7.870528537490456
