# Rounds: 5000, repetitions: 1000
# Good arm ~ N(5.0,0.0), 4 bad arm(s) ~ N(0.3,0.0)
# Observation noise range from 0.5 to 4.0 with step size 0.1

# Observation noise | mean | standard deviation

0.5 24985.495000000014 2.413823013715546
0.6 24985.3822 2.4781170723405226
0.7 24985.264700000014 2.7233031947052875
0.7999999999999999 24985.0814 2.956713749451927
0.8999999999999999 24984.9263 3.3698477983710227
0.9999999999999999 24984.399899999986 4.1750714019300545
1.0999999999999999 24984.089699999982 3.9269536379842993
1.1999999999999997 24982.280199999987 4.7641205699277895
1.2999999999999996 24978.54369999999 5.510704871264979
1.3999999999999995 24973.556999999997 5.002869146769865
1.4999999999999993 24969.129600000022 3.935888089752264
1.5999999999999992 24966.87359999999 3.00897606786368
1.699999999999999 24964.899599999993 3.6149311981794714
1.799999999999999 24962.408599999995 4.4959893193785545
1.8999999999999988 24958.74730000001 5.055233733281236
1.9999999999999987 24954.592499999984 4.925980006966554
2.0999999999999988 24950.02410000001 4.67686885558018
2.199999999999999 24946.3346 4.529114230809106
2.299999999999999 24942.42420000001 5.023828541383013
2.399999999999999 24937.916900000007 5.399460951666541
2.499999999999999 24933.785599999996 5.613150639356249
2.599999999999999 24929.029200000008 5.534218547811476
2.6999999999999993 24924.3997 5.870974216282569
2.7999999999999994 24919.774899999942 5.734770054464449
2.8999999999999995 24915.178299999985 5.904549331897959
2.9999999999999996 24909.674599999988 6.026492632822
3.0999999999999996 24904.47640000002 6.635909759659638
3.1999999999999997 24899.54139999997 6.613713574630763
3.3 24894.13639999998 6.706839549053201
3.4 24888.4118 6.834385823875938
3.5 24883.081999999966 7.163026242095783
3.6 24877.32919999999 7.542994373863303
3.7 24871.989999999983 7.500214211155729
3.8000000000000003 24865.757799999978 7.974783779911877
3.9000000000000004 24860.06139999998 8.23885846636776
4.0 24854.223999999987 8.16044342158236
