# Rounds: 5000, repetitions: 1000
# Good arm ~ N(5.0,0.0), 4 bad arm(s) ~ N(2.1,0.0)
# Observation noise range from 0.5 to 4.0 with step size 0.1

# Observation noise | mean | standard deviation

0.5 24990.79000000002 4.651379938828975
0.6 24990.560900000022 5.092488058368945
0.7 24990.404299999984 4.690948358968713
0.7999999999999999 24988.19449999995 4.878386865390199
0.8999999999999999 24984.038800000013 4.0371020240699655
0.9999999999999999 24980.697999999986 3.746805913649067
1.0999999999999999 24978.74339999998 4.034043870603386
1.1999999999999997 24975.756400000017 4.100135381929839
1.2999999999999996 24971.73410000003 3.878795204988652
1.3999999999999995 24967.99310000003 3.3308342568860088
1.4999999999999993 24963.97080000002 3.925113230707789
1.5999999999999992 24959.852800000037 3.9966116980599677
1.699999999999999 24955.49119999998 3.7906056575766716
1.799999999999999 24950.752599999978 3.9587150269583207
1.8999999999999988 24945.822600000007 4.225736159072286
1.9999999999999987 24941.414599999975 4.148693589372639
2.0999999999999988 24936.003200000003 4.456099930049731
2.199999999999999 24930.85279999999 4.524195011325977
2.299999999999999 24925.345699999965 4.800048121839422
2.399999999999999 24920.02129999999 5.018077062721432
2.499999999999999 24914.024099999984 4.890782037562381
2.599999999999999 24908.19219999997 5.488327696202666
2.6999999999999993 24902.215299999996 5.461168397905047
2.7999999999999994 24896.235500000006 5.599105261533952
2.8999999999999995 24889.887400000003 5.926609987670219
2.9999999999999996 24883.78869999998 5.725343821280719
3.0999999999999996 24877.121599999937 6.304088750563562
3.1999999999999997 24870.674900000027 6.239967723249306
3.3 24863.723599999965 6.857095799448361
3.4 24856.949200000006 6.831235989567034
3.5 24849.823900000018 6.868488547339516
3.6 24842.88999999999 6.958645180115852
3.7 24835.799500000034 7.143685462840713
3.8000000000000003 24828.514700000003 7.262066615057468
3.9000000000000004 24820.9776 7.586095641836924
4.0 24813.048999999955 8.048010280155117
