# Rounds: 5000, repetitions: 1000
# Good arm ~ N(5.0,0.0), 4 bad arm(s) ~ N(2.5,0.0)
# Observation noise range from 0.5 to 4.0 with step size 0.1

# Observation noise | mean | standard deviation

0.5 24991.9875 5.152197481549887
0.6 24991.2725 5.751745502569274
0.7 24989.170000000027 5.5850060243738
0.7999999999999999 24985.01249999998 4.442784271386861
0.8999999999999999 24983.04249999997 3.9389032367790198
0.9999999999999999 24980.732500000006 4.144196920769847
1.0999999999999999 24976.82500000001 3.7527934207012175
1.1999999999999997 24973.10750000002 3.2917365142549486
1.2999999999999996 24969.289999999983 3.582420094535739
1.3999999999999995 24964.89249999999 3.7361279959875855
1.4999999999999993 24960.327500000007 3.570608210514425
1.5999999999999992 24955.90000000001 3.5675941091620613
1.699999999999999 24951.032499999976 3.743889750040826
1.799999999999999 24946.042500000018 3.732743913949537
1.8999999999999988 24940.84500000002 3.638229199997094
1.9999999999999987 24935.252499999977 4.01043355852302
2.0999999999999988 24929.352499999957 4.177852103437638
2.199999999999999 24924.102499999997 4.2961262144460255
2.299999999999999 24917.557500000003 4.625942400537789
2.399999999999999 24911.79750000001 4.902731945612592
2.499999999999999 24905.517500000013 5.000094468577002
2.599999999999999 24898.894999999982 5.309865315586586
2.6999999999999993 24892.432499999984 5.367075483841175
2.7999999999999994 24885.604999999974 5.7034203776334715
2.8999999999999995 24878.890000000003 5.744641059361436
2.9999999999999996 24871.735000000015 5.876802856299655
3.0999999999999996 24865.00750000001 6.1862317458379215
3.1999999999999997 24857.754999999997 6.380688692311205
3.3 24850.519999999986 6.5962573184049615
3.4 24842.86999999996 7.119605943364295
3.5 24835.619999999974 7.0019373838335905
3.6 24827.987500000047 7.064417863472496
3.7 24820.132500000003 7.289844688714994
3.8000000000000003 24812.180000000008 7.483555545568175
3.9000000000000004 24804.050000000014 7.683198001583149
4.0 24795.55000000001 8.176298175326826
