# Rounds: 5000, repetitions: 1000
# Good arm ~ N(5.0,0.0), 4 bad arm(s) ~ N(4.5,0.0)
# Observation noise range from 0.5 to 4.0 with step size 0.1

# Observation noise | mean | standard deviation

0.5 24981.88450000001 1.6060788396710883
0.6 24974.174000000035 1.3594381457322862
0.7 24965.51000000002 1.6001438874240117
0.7999999999999999 24956.214000000014 1.5696074884083921
0.8999999999999999 24946.07249999999 1.7330600818342108
0.9999999999999999 24935.2675 2.0152555681612596
1.0999999999999999 24923.70000000001 2.1742187625046276
1.1999999999999997 24911.962000000014 2.30637711039963
1.2999999999999996 24899.78299999998 2.6225538676619653
1.3999999999999995 24886.83900000002 2.638093731947106
1.4999999999999993 24873.45500000002 2.9337828962078984
1.5999999999999992 24859.978000000017 3.158954731393782
1.699999999999999 24846.000499999987 3.3213372353663693
1.799999999999999 24831.481500000005 3.5268039492004495
1.8999999999999988 24817.243999999984 3.8104440008328724
1.9999999999999987 24802.047499999986 3.906565627889127
2.0999999999999988 24786.979499999987 4.173397536420051
2.199999999999999 24771.61200000005 4.374939553421968
2.299999999999999 24756.123500000027 4.483927224359611
2.399999999999999 24740.157499999983 4.9624156737741725
2.499999999999999 24724.403000000002 5.075021856785106
2.599999999999999 24708.365499999985 5.2378043438395
2.6999999999999993 24692.338000000014 5.455732858289672
2.7999999999999994 24676.1965 5.518522614055444
2.8999999999999995 24659.624499999998 6.030224984473062
2.9999999999999996 24643.455000000013 6.107640974900029
3.0999999999999996 24626.544999999995 6.138742473761101
3.1999999999999997 24609.38800000001 6.336648097307372
3.3 24593.430499999962 6.760223396484018
3.4 24576.85700000001 6.988840740415691
3.5 24560.277999999966 7.192005349062355
3.6 24543.08599999996 7.332248349985588
3.7 24526.710999999985 7.59955473907731
3.8000000000000003 24509.926500000016 7.800557444596252
3.9000000000000004 24493.247000000003 8.189172946858234
4.0 24477.10050000003 8.264953672538638
