# Rounds: 5000, repetitions: 1000
# Good arm ~ N(5.0,0.0), 4 bad arm(s) ~ N(4.0,0.0)
# Observation noise range from 0.5 to 4.0 with step size 0.1

# Observation noise | mean | standard deviation

0.5 24989.310000000023 3.4353604907930517
0.6 24984.615 3.749778104879797
0.7 24979.944000000003 3.031510193625268
0.7999999999999999 24974.245999999996 2.82195808747178
0.8999999999999999 24968.174000000006 2.455963305050745
0.9999999999999999 24961.450999999997 2.5059686508172803
1.0999999999999999 24954.315999999977 2.4727026222856363
1.1999999999999997 24946.733000000015 2.3662861852088817
1.2999999999999996 24938.90499999999 2.7076385110103107
1.3999999999999995 24930.623 2.8535966803341752
1.4999999999999993 24922.117999999984 3.0840861835538464
1.5999999999999992 24913.10700000005 3.2108972049663427
1.699999999999999 24903.86099999999 3.451027178767023
1.799999999999999 24894.23600000004 3.5189041883357435
1.8999999999999988 24884.553000000004 3.699578067547384
1.9999999999999987 24874.21400000002 3.813495345053779
2.0999999999999988 24863.99600000001 4.1459827753107135
2.199999999999999 24853.55100000003 4.211310263342582
2.299999999999999 24842.761999999988 4.607666067174023
2.399999999999999 24831.713000000007 4.669736334894889
2.499999999999999 24820.441999999995 5.185704149633608
2.599999999999999 24809.02600000001 5.271158232220751
2.6999999999999993 24797.420999999995 5.305648773609908
2.7999999999999994 24785.568000000014 5.467107577619512
2.8999999999999995 24773.70099999998 5.940108070050877
2.9999999999999996 24761.703999999987 5.7142835978832265
3.0999999999999996 24748.652000000002 6.205594685878614
3.1999999999999997 24736.898999999958 6.438186798256932
3.3 24724.10199999999 6.4272003940211
3.4 24711.565000000002 6.705873824024953
3.5 24698.608 6.70263092085944
3.6 24685.256999999983 7.241781161730517
3.7 24672.084000000043 7.368666177894197
3.8000000000000003 24659.305999999997 7.409403704972688
3.9000000000000004 24645.61400000002 7.98189919221693
4.0 24631.77199999998 8.157239518155487
