# Rounds: 5000, repetitions: 1000
# Good arm ~ N(5.0,0.0), 4 bad arm(s) ~ N(3.0,0.0)
# Observation noise range from 0.5 to 4.0 with step size 0.1

# Observation noise | mean | standard deviation

0.5 24992.820000000018 5.525045350594469
0.6 24989.98400000001 4.638670203976678
0.7 24986.83799999999 4.224168509848983
0.7999999999999999 24984.649999999976 4.243053558877587
0.8999999999999999 24981.131999999994 3.5770618349940877
0.9999999999999999 24977.295999999973 3.493506632108883
1.0999999999999999 24972.971999999976 3.8779188044948136
1.1999999999999997 24968.646000000015 3.4144314815708694
1.2999999999999996 24963.941999999985 3.2911194854437595
1.3999999999999995 24959.02999999999 2.9576760890685225
1.4999999999999993 24953.76999999999 3.6398280657674085
1.5999999999999992 24948.08200000001 3.3136469721827804
1.699999999999999 24942.41599999998 3.569830204321737
1.799999999999999 24936.550000000017 3.851276714588626
1.8999999999999988 24930.516 4.020685253773252
1.9999999999999987 24924.163999999997 3.887958361430902
2.0999999999999988 24917.74599999996 4.428441610216264
2.199999999999999 24910.998000000018 4.408109280340881
2.299999999999999 24904.031999999985 4.780567940091378
2.399999999999999 24897.237999999976 4.817734588638848
2.499999999999999 24889.60799999998 5.306080520543416
2.599999999999999 24882.51399999999 5.263031778690288
2.6999999999999993 24874.965999999993 5.420722113171723
2.7999999999999994 24867.046 5.798923306227752
2.8999999999999995 24859.59799999999 5.890423846642416
2.9999999999999996 24851.19799999997 5.895723497210144
3.0999999999999996 24843.58399999999 5.948977587311479
3.1999999999999997 24835.175999999992 6.290357111690262
3.3 24826.962000000003 6.611979603286383
3.4 24818.587999999978 6.814447350496822
3.5 24809.346000000016 6.8471283883951335
3.6 24800.611999999976 7.079235239174566
3.7 24791.80799999999 7.1469024209243015
3.8000000000000003 24782.759999999977 7.500844130007235
3.9000000000000004 24773.598000000005 7.636275840271106
4.0 24764.282000000003 7.6860621615721385
