# Rounds: 5000, repetitions: 1000
# Good arm ~ N(5.0,0.0), 4 bad arm(s) ~ N(3.7,0.0)
# Observation noise range from 0.5 to 4.0 with step size 0.1

# Observation noise | mean | standard deviation

0.5 24991.043200000015 4.289446714100876
0.6 24987.135399999977 4.598022254040415
0.7 24983.409600000003 3.8540396289427754
0.7999999999999999 24978.73870000001 3.8303216149136166
0.8999999999999999 24974.053499999995 2.829019459300434
0.9999999999999999 24968.7066 2.9034749192314
1.0999999999999999 24962.6512 2.7768884870782284
1.1999999999999997 24956.568500000016 2.7363086695642225
1.2999999999999996 24950.039900000018 2.7750745988217567
1.3999999999999995 24943.335799999993 2.8995008993723603
1.4999999999999993 24935.808800000003 3.1927787891415735
1.5999999999999992 24928.62630000005 3.434800746209343
1.699999999999999 24920.695000000007 3.561859323700949
1.799999999999999 24912.94310000003 3.5624603174640512
1.8999999999999988 24904.59450000003 3.7812428575192967
1.9999999999999987 24895.997600000046 3.9997690423800956
2.0999999999999988 24887.301900000017 4.137751488111351
2.199999999999999 24878.627000000055 4.217378009767171
2.299999999999999 24869.2462 4.3711385716312945
2.399999999999999 24859.97070000002 4.646851055792768
2.499999999999999 24850.446899999984 5.095866780856209
2.599999999999999 24840.854200000016 5.200527650905737
2.6999999999999993 24830.92220000003 5.212861122365379
2.7999999999999994 24820.682100000064 5.4645760294067
2.8999999999999995 24810.196300000025 5.796904381684155
2.9999999999999996 24799.770300000047 5.877420521109728
3.0999999999999996 24789.44180000004 6.40435387127266
3.1999999999999997 24778.659600000043 6.240457607510072
3.3 24768.051600000035 6.534934032014173
3.4 24757.283700000015 6.564536346721304
3.5 24746.08420000005 6.846222397869813
3.6 24734.455700000028 6.982043858815638
3.7 24723.18990000005 7.2974804700790346
3.8000000000000003 24711.58610000003 7.920608109406261
3.9000000000000004 24700.040800000035 7.960463827209755
4.0 24688.06000000003 8.082054169551693
