# Rounds: 5000, repetitions: 1000
# Good arm ~ N(5.0,0.0), 4 bad arm(s) ~ N(2.7,0.0)
# Observation noise range from 0.5 to 4.0 with step size 0.1

# Observation noise | mean | standard deviation

0.5 24992.336199999976 5.895602402442418
0.6 24991.28509999998 5.627069566115185
0.7 24987.47630000001 5.129986849405785
0.7999999999999999 24984.769199999984 4.071401192177933
0.8999999999999999 24982.7843 3.8948084732165342
0.9999999999999999 24979.38489999998 3.7560471083145464
1.0999999999999999 24975.316199999976 3.811281073789186
1.1999999999999997 24971.518900000003 3.3715990969374725
1.2999999999999996 24967.43179999999 3.390153669363605
1.3999999999999995 24962.981299999985 3.412102394822028
1.4999999999999993 24957.868399999956 3.622347697673516
1.5999999999999992 24952.99469999999 3.4514800629036047
1.699999999999999 24948.134799999996 3.6687475613163882
1.799999999999999 24942.584899999983 3.814799429154862
1.8999999999999988 24937.315599999973 3.92871625998176
1.9999999999999987 24931.41609999999 4.166894983533746
2.0999999999999988 24925.394700000023 4.398557629406788
2.199999999999999 24919.364099999955 4.359275682320163
2.299999999999999 24913.179400000008 4.6854935161071705
2.399999999999999 24906.52780000002 4.8735550370023955
2.499999999999999 24899.88309999999 4.865609781778806
2.599999999999999 24893.268299999974 5.113403172251606
2.6999999999999993 24886.71330000001 5.11712987211777
2.7999999999999994 24879.5097 5.654597278354089
2.8999999999999995 24872.145099999994 5.734822069965408
2.9999999999999996 24865.309500000003 5.932675314423787
3.0999999999999996 24857.100799999986 6.392721349021256
3.1999999999999997 24850.088100000034 6.197059943386756
3.3 24842.461300000014 6.499453454344579
3.4 24834.30320000002 6.7055330835004145
3.5 24826.777599999983 6.932484228439474
3.6 24818.474600000005 7.222973500309249
3.7 24810.51429999999 7.231078343095659
3.8000000000000003 24802.363100000042 7.386081680605475
3.9000000000000004 24793.015900000028 7.53046513138986
4.0 24784.894599999985 8.025969538130994
