# Rounds: 500, repetitions: 1000
# Good arm ~ N(5.0,1.0), 4 bad arm(s) ~ N(3.2,1.0)
# Observation noise range from 0.5 to 4.0 with step size 0.1

# Observation noise | mean | standard deviation

0.5 2488.785951830262 30.097037196611094
0.6 2488.056840901003 26.15882168643591
0.7 2488.161140994087 23.288432161556955
0.7999999999999999 2486.164202452402 24.874061218177683
0.8999999999999999 2481.4960633256405 23.749000378332838
0.9999999999999999 2480.4673380553877 25.17303526841803
1.0999999999999999 2478.1957600040864 25.02190923543244
1.1999999999999997 2475.0929032433096 23.898463413136522
1.2999999999999996 2472.23601248365 24.661697239020388
1.3999999999999995 2469.925442461056 24.17785862005177
1.4999999999999993 2465.38826127261 25.116017961530968
1.5999999999999992 2463.2786105104424 25.017220113697352
1.699999999999999 2460.3642084478624 24.658109253431512
1.799999999999999 2455.6899131024693 26.14145794529738
1.8999999999999988 2452.349071301464 25.58972080762293
1.9999999999999987 2448.2415107914558 25.37479896862216
2.0999999999999988 2444.3098586700967 25.736121847591313
2.199999999999999 2441.0038907592652 26.063198409591422
2.299999999999999 2436.9492677698217 24.758773501045198
2.399999999999999 2433.1639286683776 27.673317588218183
2.499999999999999 2428.4039947279293 26.42518924352165
2.599999999999999 2425.575424130579 26.82669144567822
2.6999999999999993 2420.0096831265787 28.06234983259574
2.7999999999999994 2417.6272155961055 27.997922362801596
2.8999999999999995 2411.731752831779 28.301740960449358
2.9999999999999996 2407.1340564016627 28.405736865754285
3.0999999999999996 2402.8533112163323 27.707084004254668
3.1999999999999997 2398.3192739888227 27.57465830817303
3.3 2394.4142669520284 29.18356930965455
3.4 2390.4515400796404 27.891336950302826
3.5 2383.5377420830546 28.508563266649816
3.6 2378.804853201565 30.19309140010292
3.7 2375.7144316851895 30.292785322625804
3.8000000000000003 2371.6760133223615 29.89582592533824
3.9000000000000004 2368.2217708854887 30.82821155056432
4.0 2361.9721093471126 31.358297439915454
