# Rounds: 500, repetitions: 1000
# Good arm ~ N(5.0,1.0), 4 bad arm(s) ~ N(3.6,1.0)
# Observation noise range from 0.5 to 4.0 with step size 0.1

# Observation noise | mean | standard deviation

0.5 2483.7185997777424 55.148309463464535
0.6 2484.1796740894442 47.8112988081016
0.7 2483.289548449665 32.54487964857042
0.7999999999999999 2483.145454158641 32.876807148121756
0.8999999999999999 2480.49912573144 25.434447674568858
0.9999999999999999 2478.707934299711 26.93642300671273
1.0999999999999999 2474.2836809164664 24.52148613599951
1.1999999999999997 2472.4282078742876 24.83438693864731
1.2999999999999996 2467.70330754424 25.147577562758652
1.3999999999999995 2464.1831666332255 25.220618351042678
1.4999999999999993 2460.398489014336 26.584183207549646
1.5999999999999992 2457.220158008827 25.727968290565865
1.699999999999999 2453.9542788255317 25.716672019011238
1.799999999999999 2447.9881094800257 25.883083385594126
1.8999999999999988 2444.689824008545 26.236129158186035
1.9999999999999987 2439.9225666760462 25.78480511105879
2.0999999999999988 2436.651182449013 25.596425641898126
2.199999999999999 2432.1098650867943 28.088454093026282
2.299999999999999 2427.834333242597 27.344184215252458
2.399999999999999 2425.3289779962497 28.04749420049439
2.499999999999999 2417.9339592340652 27.666570968640812
2.599999999999999 2414.7880465597354 27.399838455560754
2.6999999999999993 2410.879613559862 29.10476443229991
2.7999999999999994 2403.826626033929 29.15449690761475
2.8999999999999995 2400.1737625047263 29.235484217696598
2.9999999999999996 2394.9744080505693 30.351138627246893
3.0999999999999996 2390.4092096716595 29.89281522372947
3.1999999999999997 2385.731294456324 30.8573356965163
3.3 2381.5115240783575 30.40633473377151
3.4 2378.3532874321213 30.651905693385373
3.5 2371.807989655485 31.15286001628865
3.6 2366.912630050272 30.745184110761233
3.7 2361.575948117384 31.760504258131565
3.8000000000000003 2358.9028060481887 31.954029539857864
3.9000000000000004 2352.3776196977497 32.260221065325005
4.0 2348.377779678911 34.79417115477669
