# Rounds: 500, repetitions: 1000
# Good arm ~ N(5.0,1.0), 4 bad arm(s) ~ N(3.9,1.0)
# Observation noise range from 0.5 to 4.0 with step size 0.1

# Observation noise | mean | standard deviation

0.5 2476.7896198564613 68.17168900065018
0.6 2481.8344635840813 43.684922922637035
0.7 2479.394867565668 39.87274361616897
0.7999999999999999 2477.0908718378555 38.06081522959053
0.8999999999999999 2475.1094536448295 29.858252409505024
0.9999999999999999 2472.7024487540266 29.30381294679915
1.0999999999999999 2469.5316652920446 28.361668405352354
1.1999999999999997 2465.3717377861753 32.11910777174129
1.2999999999999996 2463.7081615549387 26.111754688072207
1.3999999999999995 2459.2479960129904 26.47675017773561
1.4999999999999993 2453.464018433662 26.412624664558226
1.5999999999999992 2451.7021185796048 27.794297272619236
1.699999999999999 2445.1092361019805 27.87523389185753
1.799999999999999 2442.177202775769 27.329173977144364
1.8999999999999988 2438.065339887667 26.710842433767148
1.9999999999999987 2433.5919372354097 27.016894140612216
2.0999999999999988 2430.2858620143547 28.477163654363395
2.199999999999999 2423.511130093249 30.18695519649828
2.299999999999999 2419.72412639956 28.67314088553567
2.399999999999999 2412.694277728481 29.631561844862247
2.499999999999999 2408.4559123470394 29.74905067887976
2.599999999999999 2404.3247998126208 29.393622401637348
2.6999999999999993 2398.587672960394 30.59193400853819
2.7999999999999994 2393.460767752286 31.57946324048902
2.8999999999999995 2389.307674167726 31.183057134716336
2.9999999999999996 2384.72278288788 32.116949127164126
3.0999999999999996 2381.1000822746037 30.65805894297359
3.1999999999999997 2374.8942494067737 32.42855322678731
3.3 2370.7125812415547 32.144493134485316
3.4 2367.3580851755655 33.5884744862414
3.5 2363.103212694572 32.11283798949559
3.6 2356.6961917026333 33.936492478536984
3.7 2353.033972229274 33.27688461609989
3.8000000000000003 2347.506086180493 33.98092667864122
3.9000000000000004 2342.083280675431 34.2994825334591
4.0 2339.2376179231605 35.72804368835854
