# Rounds: 500, repetitions: 1000
# Good arm ~ N(5.0,0.0), 4 bad arm(s) ~ N(2.0,0.0)
# Observation noise range from 0.5 to 4.0 with step size 0.1

# Observation noise | mean | standard deviation

0.5 2490.717000000002 4.5081297934103635
0.6 2490.2760000000003 4.889348599734912
0.7 2490.3000000000034 4.806152213475923
0.7999999999999999 2489.8500000000013 5.263763597199953
0.8999999999999999 2489.210999999999 5.193404514425042
0.9999999999999999 2487.5430000000015 5.668181302611921
1.0999999999999999 2485.067999999999 5.041506996205864
1.1999999999999997 2482.265999999999 4.944663152702478
1.2999999999999996 2480.124 4.8423209385657
1.3999999999999995 2477.6999999999957 5.190080629136414
1.4999999999999993 2475.7079999999974 4.866047103595947
1.5999999999999992 2472.7319999999986 5.281673226551625
1.699999999999999 2470.4550000000017 4.756953184928776
1.799999999999999 2467.5690000000022 5.080851705575963
1.8999999999999988 2464.6440000000002 5.281018192844313
1.9999999999999987 2461.4670000000024 5.390915782404009
2.0999999999999988 2458.592999999998 5.72731640064989
2.199999999999999 2455.9829999999965 5.583178564481216
2.299999999999999 2452.539000000005 5.417548230410957
2.399999999999999 2449.4640000000004 5.67899242427345
2.499999999999999 2445.942000000001 5.966425582728264
2.599999999999999 2442.099000000003 6.190599528520857
2.6999999999999993 2439.0180000000037 6.4667994785284515
2.7999999999999994 2435.5379999999996 6.779861541545101
2.8999999999999995 2431.5150000000003 6.903436277132746
2.9999999999999996 2428.242000000001 7.031847757373771
3.0999999999999996 2423.987999999994 7.254687208039091
3.1999999999999997 2420.2290000000035 7.574822568016796
3.3 2416.587 7.630639400316192
3.4 2411.9190000000044 8.396841426747686
3.5 2407.8990000000013 8.504535620839347
3.6 2403.5069999999964 8.360373606893845
3.7 2399.8650000000025 9.077729902358845
3.8000000000000003 2395.2420000000006 9.129007326909917
3.9000000000000004 2390.8380000000006 9.826918353396671
4.0 2386.650000000002 10.283153370598114
