# Rounds: 500, repetitions: 1000
# Good arm ~ N(5.0,0.0), 4 bad arm(s) ~ N(1.5,0.0)
# Observation noise range from 0.5 to 4.0 with step size 0.1

# Observation noise | mean | standard deviation

0.5 2489.326999999999 3.4515190835317875
0.6 2489.005000000002 4.030970568451673
0.7 2488.9420000000023 3.9960736485461332
0.7999999999999999 2488.630500000001 4.482612359279309
0.8999999999999999 2488.378500000004 4.565723774341114
0.9999999999999999 2487.5140000000015 4.927380955749527
1.0999999999999999 2486.313499999999 5.285300573491743
1.1999999999999997 2484.1434999999974 5.390103056617848
1.2999999999999996 2481.472999999998 5.452751920223683
1.3999999999999995 2478.8235000000027 5.122092695723466
1.4999999999999993 2476.524000000005 5.2098528354038764
1.5999999999999992 2474.5745000000015 4.5935062915
1.699999999999999 2472.0789999999974 4.6365673462980155
1.799999999999999 2469.5589999999993 5.016341563598196
1.8999999999999988 2466.8150000000005 5.076814852744685
1.9999999999999987 2463.780499999996 5.885933567749784
2.0999999999999988 2460.987500000004 5.769261488971364
2.199999999999999 2458.2259999999974 5.781076443435479
2.299999999999999 2455.2650000000003 5.979592839862125
2.399999999999999 2452.244499999999 5.680690098041766
2.499999999999999 2449.14 6.181756555714074
2.599999999999999 2445.6260000000025 6.41757814984042
2.6999999999999993 2442.2449999999994 6.276931963537156
2.7999999999999994 2438.7520000000013 7.0182085499970395
2.8999999999999995 2435.2484999999992 6.885158179239818
2.9999999999999996 2431.8464999999997 7.12259918633416
3.0999999999999996 2427.8914999999974 7.244512455004191
3.1999999999999997 2424.559499999998 7.674118962581426
3.3 2420.433000000001 7.6557574165866615
3.4 2416.5934999999986 8.111615502232324
3.5 2412.673500000001 8.411028066957277
3.6 2408.9109999999964 8.979711254501176
3.7 2404.7740000000026 8.9026502335642
3.8000000000000003 2400.8820000000014 9.141178104442426
3.9000000000000004 2396.3670000000034 9.548008979649929
4.0 2392.4575 9.132104855348965
