# Rounds: 500, repetitions: 1000
# Good arm ~ N(5.0,0.0), 4 bad arm(s) ~ N(4.4,0.0)
# Observation noise range from 0.5 to 4.0 with step size 0.1

# Observation noise | mean | standard deviation

0.5 2490.3995999999984 2.9634678979165896
0.6 2486.4378000000006 2.7440373359159707
0.7 2482.0536000000016 2.7873888456002316
0.7999999999999999 2477.7431999999967 2.8330619477872307
0.8999999999999999 2473.066799999996 2.560737224928599
0.9999999999999999 2468.0663999999974 2.62344687644203
1.0999999999999999 2463.0420000000036 2.915698423585173
1.1999999999999997 2457.9720000000057 3.0970837779963074
1.2999999999999996 2452.9032000000025 3.209805697018499
1.3999999999999995 2447.7642000000023 3.4688082955088255
1.4999999999999993 2442.6173999999996 3.8426791986091007
1.5999999999999992 2437.6842000000015 3.9712367193458573
1.699999999999999 2432.464200000001 4.347580915845032
1.799999999999999 2427.462600000002 4.5119484614652015
1.8999999999999988 2422.4850000000056 4.721634126955244
1.9999999999999987 2417.8032000000026 4.953346889266373
2.0999999999999988 2413.1826000000033 5.083169862974792
2.199999999999999 2408.7420000000047 5.476603800640348
2.299999999999999 2404.170600000007 5.615506170377599
2.399999999999999 2399.3760000000034 5.945772970456863
2.499999999999999 2395.2972 6.3097737998603804
2.599999999999999 2391.687000000007 6.324896466766436
2.6999999999999993 2387.238000000006 6.655678331624286
2.7999999999999994 2383.6122000000064 7.14541448119746
2.8999999999999995 2379.849600000005 7.052466030908323
2.9999999999999996 2376.4896000000053 7.459250113265427
3.0999999999999996 2372.929200000008 7.430351100552088
3.1999999999999997 2369.1774000000123 7.64960951720829
3.3 2366.1510000000017 7.858358148671446
3.4 2362.9494000000072 8.201801581920106
3.5 2360.250000000005 8.464179956873563
3.6 2357.0928000000067 8.416368778958043
3.7 2354.4528000000078 8.790376720191206
3.8000000000000003 2351.841000000007 8.605733998773978
3.9000000000000004 2349.150000000008 8.928938679705574
4.0 2346.6036000000086 9.096003755733623
