# Rounds: 500, repetitions: 1000
# Good arm ~ N(5.0,0.0), 4 bad arm(s) ~ N(3.3,0.0)
# Observation noise range from 0.5 to 4.0 with step size 0.1

# Observation noise | mean | standard deviation

0.5 2493.4467999999993 5.9918203971473565
0.6 2492.0545000000006 5.725775428206567
0.7 2489.4687999999983 5.285105382005044
0.7999999999999999 2487.331900000001 5.764491456473078
0.8999999999999999 2485.274900000003 4.877436763237372
0.9999999999999999 2482.8030999999983 4.739166602905041
1.0999999999999999 2479.6444999999985 4.558081378810127
1.1999999999999997 2477.128500000001 4.869002457889594
1.2999999999999996 2474.0736 4.602721813024147
1.3999999999999995 2470.867399999999 4.368212279470686
1.4999999999999993 2466.969300000002 4.786424277826544
1.5999999999999992 2463.963699999998 4.721409113179427
1.699999999999999 2460.262800000001 4.852686341061498
1.799999999999999 2456.5296 4.899470241633132
1.8999999999999988 2452.7062999999994 4.923625940544453
1.9999999999999987 2449.0071000000016 5.659267346299948
2.0999999999999988 2445.241599999996 5.3176806191390495
2.199999999999999 2441.2856999999995 5.253827958566798
2.299999999999999 2437.3043000000002 5.753039977175459
2.399999999999999 2433.185199999998 5.62682522583758
2.499999999999999 2428.602000000002 6.519917585777078
2.599999999999999 2424.9469999999988 6.11925782397801
2.6999999999999993 2420.0747999999994 6.703609724867882
2.7999999999999994 2415.8672999999962 7.020463490227489
2.8999999999999995 2412.1323999999995 7.199163715196243
2.9999999999999996 2407.1445999999946 7.785392936980306
3.0999999999999996 2402.734799999999 8.030404495189261
3.1999999999999997 2398.0088000000023 8.36671647090448
3.3 2393.7384 8.604908476555119
3.4 2388.8049999999994 9.384242057779579
3.5 2385.1789000000035 8.976836212072618
3.6 2379.426099999998 9.125077305197255
3.7 2376.0056999999965 10.05148894144245
3.8000000000000003 2369.9740999999954 10.219928871383408
3.9000000000000004 2365.7751 10.321850152980351
4.0 2360.7549999999965 10.50094495009115
