# Rounds: 500, repetitions: 1000
# Good arm ~ N(5.0,0.0), 4 bad arm(s) ~ N(0.4,0.0)
# Observation noise range from 0.5 to 4.0 with step size 0.1

# Observation noise | mean | standard deviation

0.5 2485.8087999999975 2.375501118830577
0.6 2485.4637999999977 2.9967699595047197
0.7 2485.371799999995 3.220661021811704
0.7999999999999999 2485.3856 3.1762684586352217
0.8999999999999999 2485.229199999998 3.4538611026669996
0.9999999999999999 2484.9624000000003 3.7819160658492685
1.0999999999999999 2484.709399999998 4.022946151234825
1.1999999999999997 2483.968800000001 4.806742278438758
1.2999999999999996 2483.545600000002 4.718434514143822
1.3999999999999995 2481.765399999998 4.888846864411179
1.4999999999999993 2479.6723999999977 5.363141012645585
1.5999999999999992 2477.082599999998 5.770778034123174
1.699999999999999 2474.097199999997 5.749149927153119
1.799999999999999 2470.808199999999 5.567664829320445
1.8999999999999988 2468.728999999999 4.943512649656901
1.9999999999999987 2466.2357999999995 5.2082746168461975
2.0999999999999988 2463.7794 5.601738579683516
2.199999999999999 2461.194199999999 5.853199663970626
2.299999999999999 2458.6504 6.185301754789105
2.399999999999999 2455.665000000003 6.152943499961051
2.499999999999999 2452.5922000000023 6.6511635927209705
2.599999999999999 2450.053000000002 6.518352546458327
2.6999999999999993 2446.1016 6.930375714746466
2.7999999999999994 2443.336999999999 6.568526207341821
2.8999999999999995 2440.232000000001 7.182540280770084
2.9999999999999996 2436.676200000001 7.054280717155807
3.0999999999999996 2433.8379999999984 7.518955425502283
3.1999999999999997 2429.6014000000023 7.769741754197899
3.3 2426.611400000001 7.8365171499232025
3.4 2422.7152 8.17534618503977
3.5 2418.8604000000005 8.674971294878585
3.6 2414.881399999999 8.845186904264446
3.7 2411.2243999999982 8.723764594984681
3.8000000000000003 2407.9584 9.103701819964577
3.9000000000000004 2403.2571999999996 9.736969586926762
4.0 2399.241399999995 9.233230127023697
