# Rounds: 500, repetitions: 1000
# Good arm ~ N(5.0,0.0), 4 bad arm(s) ~ N(3.6,0.0)
# Observation noise range from 0.5 to 4.0 with step size 0.1

# Observation noise | mean | standard deviation

0.5 2492.866199999997 6.151310118680087
0.6 2490.778800000003 5.417115071299066
0.7 2489.2164000000002 4.429165671833528
0.7999999999999999 2486.538200000001 4.761976184020355
0.8999999999999999 2483.713 4.832919211833355
0.9999999999999999 2480.6105999999977 4.638361999891986
1.0999999999999999 2477.4634000000015 4.17715082670339
1.1999999999999997 2474.1257999999966 4.234702712950121
1.2999999999999996 2470.9407999999985 4.272117314206919
1.3999999999999995 2466.9508000000005 4.340887312827041
1.4999999999999993 2463.2548000000033 4.181713008287846
1.5999999999999992 2459.6679999999983 4.259511643303672
1.699999999999999 2455.6485999999973 4.960932260058527
1.799999999999999 2451.1727999999976 4.7320664209849
1.8999999999999988 2447.500599999999 5.130075761362373
1.9999999999999987 2443.3355999999994 4.966838241992849
2.0999999999999988 2439.131400000001 5.266820049463797
2.199999999999999 2434.5351999999984 5.622687575846248
2.299999999999999 2430.1602000000025 5.80845884500825
2.399999999999999 2426.0483999999983 5.9454356985544905
2.499999999999999 2421.4507999999987 6.572602107115481
2.599999999999999 2417.127599999999 6.5344209304954814
2.6999999999999993 2412.4543999999973 6.759041743123497
2.7999999999999994 2408.1339999999987 7.440594495498796
2.8999999999999995 2403.2073999999993 7.358187831808082
2.9999999999999996 2398.9877999999962 7.713050129637614
3.0999999999999996 2394.397199999999 8.002401551446368
3.1999999999999997 2389.3754000000013 8.359739235172379
3.3 2384.8799999999974 8.652656728916753
3.4 2379.860999999999 8.635949201947549
3.5 2375.084199999997 9.778233184180268
3.6 2370.037199999998 9.978887430688578
3.7 2366.1396 10.367398651291172
3.8000000000000003 2361.1835999999994 10.52344020906823
3.9000000000000004 2355.7361999999985 11.048705057310672
4.0 2351.5292 11.426412834755698
