# Rounds: 500, repetitions: 1000
# Good arm ~ N(5.0,1.0), 4 bad arm(s) ~ N(3.3,1.0)
# Observation noise range from 0.5 to 4.0 with step size 0.1

# Observation noise | mean | standard deviation

0.5 2487.0467649938955 33.43522465035181
0.6 2486.0080748295504 36.00992847318621
0.7 2484.390879015915 38.16344654885889
0.7999999999999999 2483.965138466507 25.163155394864344
0.8999999999999999 2483.6942589783266 24.471058058836377
0.9999999999999999 2480.575143237463 23.75378945347809
1.0999999999999999 2476.6349021247693 24.08968814050661
1.1999999999999997 2475.005930471832 23.869684921698624
1.2999999999999996 2473.0417401139302 23.81504954575336
1.3999999999999995 2467.638209151356 24.932919427251804
1.4999999999999993 2466.1359747089455 23.903817942671065
1.5999999999999992 2461.516549792567 25.413794087528757
1.699999999999999 2457.6930684675353 25.372357166796863
1.799999999999999 2454.5162400923778 24.692255625808603
1.8999999999999988 2450.781739372047 25.381717463230242
1.9999999999999987 2447.162964163736 24.655047101946476
2.0999999999999988 2443.649940181791 25.85444548372072
2.199999999999999 2439.709072434573 26.376854572620413
2.299999999999999 2436.6290870158264 26.037738502390134
2.399999999999999 2430.0941678165286 26.70333345801573
2.499999999999999 2426.0875405489433 26.7646301852972
2.599999999999999 2421.728349148089 27.180647223637273
2.6999999999999993 2418.462875822129 27.12457155928367
2.7999999999999994 2413.058028527849 26.49071296945468
2.8999999999999995 2410.042654694878 29.013768702954657
2.9999999999999996 2405.691392803409 27.404667401610553
3.0999999999999996 2401.6125079805806 27.806592264052185
3.1999999999999997 2395.5995486778606 28.827536100569095
3.3 2392.4175720816274 29.241368876779845
3.4 2385.526291382422 28.346619534442553
3.5 2382.5419734261664 29.540588248887115
3.6 2376.7691835861874 30.675061413221798
3.7 2374.2590262339972 29.503070055024597
3.8000000000000003 2367.6082713381884 31.119290172455145
3.9000000000000004 2362.592712992591 30.277850489094167
4.0 2358.7192643667568 32.460295008321246
