# Rounds: 500, repetitions: 1000
# Good arm ~ N(5.0,0.0), 4 bad arm(s) ~ N(3.8,0.0)
# Observation noise range from 0.5 to 4.0 with step size 0.1

# Observation noise | mean | standard deviation

0.5 2492.3892000000014 5.6241331984790275
0.6 2490.3455999999956 5.575629855746179
0.7 2487.8952000000054 4.95012734388933
0.7999999999999999 2485.2072000000007 4.284304310319622
0.8999999999999999 2482.0116000000025 4.548731295251042
0.9999999999999999 2478.7440000000006 4.228704996325215
1.0999999999999999 2475.3216000000007 4.515626681239723
1.1999999999999997 2471.8043999999986 3.7629643288955648
1.2999999999999996 2467.9044000000004 3.8776664293021437
1.3999999999999995 2463.9624000000017 3.8894259054356204
1.4999999999999993 2459.9315999999994 4.112779643549612
1.5999999999999992 2455.8060000000023 4.24017252751146
1.699999999999999 2451.432000000005 4.5019155082301525
1.799999999999999 2447.0891999999994 4.559740627995669
1.8999999999999988 2442.6984000000007 5.323857708551259
1.9999999999999987 2438.059200000001 5.298083148181495
2.0999999999999988 2433.7692000000015 5.424551328646154
2.199999999999999 2429.2751999999996 6.098197518363335
2.299999999999999 2424.7452000000003 5.865072551642939
2.399999999999999 2420.4251999999983 5.881908006914206
2.499999999999999 2415.5219999999986 6.504304880767953
2.599999999999999 2410.5119999999997 7.010766494959481
2.6999999999999993 2406.1272000000013 7.163748980768277
2.7999999999999994 2401.6656000000025 7.155765620925677
2.8999999999999995 2396.5884000000005 7.389825096371001
2.9999999999999996 2392.033199999997 8.032338153751715
3.0999999999999996 2387.3795999999998 8.449081063098566
3.1999999999999997 2382.616800000001 8.346358455006579
3.3 2377.4939999999974 9.173402602923026
3.4 2372.7551999999982 9.012054709670258
3.5 2368.8611999999994 9.084460467302495
3.6 2363.931599999995 9.95592094192205
3.7 2359.068 10.475945849489772
3.8000000000000003 2354.0867999999978 10.142898212253977
3.9000000000000004 2349.4068000000007 10.870578790627647
4.0 2344.7747999999965 11.672131065217037
