# Rounds: 500, repetitions: 1000
# Good arm ~ N(5.0,0.0), 4 bad arm(s) ~ N(1.2,0.0)
# Observation noise range from 0.5 to 4.0 with step size 0.1

# Observation noise | mean | standard deviation

0.5 2488.409200000001 3.344904145673577
0.6 2488.241999999999 3.5008473162839717
0.7 2488.0709999999976 3.7827963926900896
0.7999999999999999 2487.8848000000016 3.983812209394439
0.8999999999999999 2487.7898000000014 3.923810934825097
0.9999999999999999 2486.7828000000013 5.173330407726566
1.0999999999999999 2486.4863999999975 4.658866823604313
1.1999999999999997 2484.9056000000005 5.476659788816852
1.2999999999999996 2482.340599999997 5.5325582546269665
1.3999999999999995 2479.6995999999995 5.6044669585866655
1.4999999999999993 2476.8647999999985 5.637572454805559
1.5999999999999992 2475.082600000001 4.867133265714628
1.699999999999999 2472.4074 4.809173878473676
1.799999999999999 2470.3211999999985 5.109455655654303
1.8999999999999988 2467.752400000003 5.364314505145166
1.9999999999999987 2464.7238000000048 5.6239863782536865
2.0999999999999988 2462.3108000000034 5.5242085623408395
2.199999999999999 2459.4380000000006 5.740619366471741
2.299999999999999 2456.4663999999966 5.569514389112394
2.399999999999999 2453.3808000000063 5.978716954030894
2.499999999999999 2450.5650000000032 5.9379992282615754
2.599999999999999 2447.057600000005 6.203622100609266
2.6999999999999993 2443.7097999999974 6.598636674796248
2.7999999999999994 2440.8787999999995 6.620249108474546
2.8999999999999995 2437.200399999997 7.075047429956633
2.9999999999999996 2433.632200000003 7.034071461203778
3.0999999999999996 2429.9500000000003 7.546079997145789
3.1999999999999997 2426.0359999999982 7.811589142096792
3.3 2422.418399999999 7.922359826795618
3.4 2418.816000000001 8.121843900762197
3.5 2415.0273999999986 8.604964535351352
3.6 2410.767599999999 8.643952113943534
3.7 2406.5914000000007 8.833504221815742
3.8000000000000003 2402.901599999999 9.074188577406701
3.9000000000000004 2398.067999999998 9.440971769259159
4.0 2394.469399999997 9.554376471007917
