# Rounds: 500, repetitions: 1000
# Good arm ~ N(5.0,1.0), 4 bad arm(s) ~ N(3.8,1.0)
# Observation noise range from 0.5 to 4.0 with step size 0.1

# Observation noise | mean | standard deviation

0.5 2478.8920707257744 68.18613312292383
0.6 2479.3455276658788 54.581400896731004
0.7 2478.8227554456093 53.087877672562506
0.7999999999999999 2480.1318407404424 36.084447313338096
0.8999999999999999 2476.7256500944186 34.07288765706155
0.9999999999999999 2474.3280850897395 27.97260779866275
1.0999999999999999 2472.5387035020517 26.2186215109995
1.1999999999999997 2469.7463060776854 24.747621255944367
1.2999999999999996 2466.0476651218896 25.708361620718872
1.3999999999999995 2460.609888193386 25.934575005689346
1.4999999999999993 2458.2957308731666 25.574480021739753
1.5999999999999992 2453.9620478491024 27.30508494003975
1.699999999999999 2449.945929840883 26.042539354775567
1.799999999999999 2444.1732904457986 27.144694089017953
1.8999999999999988 2439.904140342998 26.6787231221815
1.9999999999999987 2435.980204274119 27.446289099380518
2.0999999999999988 2431.519229859163 28.249389165024173
2.199999999999999 2425.5505689976717 28.053571434835796
2.299999999999999 2421.801901896809 29.168319144004034
2.399999999999999 2416.758208342119 29.63342125826011
2.499999999999999 2413.166541999087 28.57885902955855
2.599999999999999 2407.8192950883745 30.40343998588425
2.6999999999999993 2402.3270129057705 30.195959249141943
2.7999999999999994 2399.5579428621395 31.098543629159806
2.8999999999999995 2393.132319954229 31.509983212510914
2.9999999999999996 2388.4022262882404 30.78607347484589
3.0999999999999996 2384.5398072436205 30.551040597332534
3.1999999999999997 2379.8348547723044 31.665338232276515
3.3 2374.662457906829 32.1129437698301
3.4 2371.607051622733 32.049609411605545
3.5 2366.868352728765 33.47543081669453
3.6 2359.860073430648 33.35939717628431
3.7 2354.816395591383 34.11919390590389
3.8000000000000003 2351.214466651862 33.859855217351715
3.9000000000000004 2345.2514499513886 34.914094455563884
4.0 2342.047259559359 34.40965365564124
