# Rounds: 500, repetitions: 1000
# Good arm ~ N(5.0,1.0), 4 bad arm(s) ~ N(0.3,1.0)
# Observation noise range from 0.5 to 4.0 with step size 0.1

# Observation noise | mean | standard deviation

0.5 2485.203931008414 23.135971372619064
0.6 2484.1476030489735 21.881795375164852
0.7 2484.8562626241205 23.260986068067957
0.7999999999999999 2483.095825696588 21.916224224078213
0.8999999999999999 2484.181040663611 22.391755054173935
0.9999999999999999 2483.815921200084 23.19212832077429
1.0999999999999999 2482.700840795978 23.005289065398845
1.1999999999999997 2482.27127825958 23.581553775389377
1.2999999999999996 2479.1408366206124 23.337049351700397
1.3999999999999995 2479.920421487274 22.71009357537754
1.4999999999999993 2477.238371472123 23.380556535140784
1.5999999999999992 2475.2686297984737 23.57243937985187
1.699999999999999 2473.6429138261483 24.082435172335394
1.799999999999999 2470.6891253545464 24.656481475537337
1.8999999999999988 2468.061803867204 23.8085279774305
1.9999999999999987 2465.4577745335964 23.38574759626612
2.0999999999999988 2463.272595251486 24.450461028197488
2.199999999999999 2460.517104931664 23.958628585436106
2.299999999999999 2457.574909584085 24.438542662145043
2.399999999999999 2455.0452122612146 24.718047645382427
2.499999999999999 2451.962478777642 24.3048393645009
2.599999999999999 2448.058384192313 24.422083022618388
2.6999999999999993 2444.885508816439 24.78529952890637
2.7999999999999994 2441.916011007472 23.64880834255457
2.8999999999999995 2438.9814334621115 25.215899517598704
2.9999999999999996 2436.748307230619 25.21500847975855
3.0999999999999996 2433.5170128950085 25.55037371443835
3.1999999999999997 2429.2475116773603 25.174815086951007
3.3 2427.0153593289624 24.987844791398587
3.4 2422.7251895697336 24.929402785879017
3.5 2418.026233944511 26.082623073465136
3.6 2413.7303107379907 25.473395781394416
3.7 2410.7595539209433 25.352228587830368
3.8000000000000003 2407.452693486156 25.84757463907187
3.9000000000000004 2402.046672175082 26.61750069101325
4.0 2399.9809704454256 26.11250010301607
