# Rounds: 500, repetitions: 1000
# Good arm ~ N(5.0,0.0), 4 bad arm(s) ~ N(4.3,0.0)
# Observation noise range from 0.5 to 4.0 with step size 0.1

# Observation noise | mean | standard deviation

0.5 2491.0 3.662637699106315
0.6 2487.6204000000025 3.2230128221357615
0.7 2483.8278000000014 3.09848475351543
0.7999999999999999 2479.650900000003 3.054974969138339
0.8999999999999999 2475.325599999998 2.9786165911034135
0.9999999999999999 2470.8414000000034 2.732371111670534
1.0999999999999999 2466.0967999999975 2.965239012693946
1.1999999999999997 2461.2457999999997 3.181314684705525
1.2999999999999996 2456.044099999999 3.6762072424836445
1.3999999999999995 2451.1567000000027 3.565494055226784
1.4999999999999993 2446.2917000000007 3.6810611678320497
1.5999999999999992 2441.5022999999997 3.975465889557961
1.699999999999999 2436.1900000000014 4.253381155181266
1.799999999999999 2431.517499999997 4.585255534680503
1.8999999999999988 2426.005699999997 4.746298015807159
1.9999999999999987 2421.2226 5.030683553655185
2.0999999999999988 2416.3316999999984 5.436876376627895
2.199999999999999 2411.7830999999983 5.461614561979279
2.299999999999999 2406.770399999998 5.925990313964516
2.399999999999999 2402.1300999999944 6.2347362354734885
2.499999999999999 2397.3106000000016 6.529241811928791
2.599999999999999 2393.6845999999987 6.796195340858881
2.6999999999999993 2389.083499999999 6.816281937350434
2.7999999999999994 2383.8776 7.38645367804736
2.8999999999999995 2380.6673999999975 7.203199519888677
2.9999999999999996 2375.9248999999977 7.8246568771574525
3.0999999999999996 2372.3549 7.993262677920724
3.1999999999999997 2368.036600000002 8.412129597454358
3.3 2364.117999999998 9.058764662867702
3.4 2360.7474999999995 8.569934511274285
3.5 2356.8624999999965 9.57336477227663
3.6 2353.629199999999 9.293636480896092
3.7 2350.360199999999 9.164762344372742
3.8000000000000003 2346.591400000003 10.052531991465859
3.9000000000000004 2343.0122999999985 9.647921076122891
4.0 2339.704099999996 9.93041924676002
