# Rounds: 500, repetitions: 1000
# Good arm ~ N(5.0,0.0), 4 bad arm(s) ~ N(3.2,0.0)
# Observation noise range from 0.5 to 4.0 with step size 0.1

# Observation noise | mean | standard deviation

0.5 2493.0192000000006 6.909374125838824
0.6 2492.2452 5.984467462591059
0.7 2489.8008000000023 5.57548611382049
0.7999999999999999 2487.9558000000025 5.0531357136476
0.8999999999999999 2485.7742000000007 4.7158980114135725
0.9999999999999999 2483.2361999999985 4.970850925034732
1.0999999999999999 2480.390399999997 5.072154827545622
1.1999999999999997 2477.7552000000082 4.555781832804145
1.2999999999999996 2474.738399999999 4.4298701097423985
1.3999999999999995 2471.808000000004 4.69769351110993
1.4999999999999993 2468.4240000000027 4.862965394944995
1.5999999999999992 2465.2613999999944 4.382916836993384
1.699999999999999 2461.5425999999966 4.9308354645413255
1.799999999999999 2457.9209999999975 4.821228395672957
1.8999999999999988 2454.4145999999946 5.227698889155315
1.9999999999999987 2450.8559999999998 5.0776457622097295
2.0999999999999988 2446.987799999999 5.677997077386632
2.199999999999999 2443.1214000000036 5.9432098889223015
2.299999999999999 2439.0173999999993 5.822607663238184
2.399999999999999 2434.9224 5.967853342158597
2.499999999999999 2431.050600000001 6.255145600742373
2.599999999999999 2426.9610000000002 6.205396518027359
2.6999999999999993 2422.7580000000003 6.62670273885811
2.7999999999999994 2418.5622000000026 6.839762679619356
2.8999999999999995 2414.0442000000035 7.3760105675013685
2.9999999999999996 2409.8088000000025 7.410994899836676
3.0999999999999996 2405.4438000000027 7.651924824089252
3.1999999999999997 2400.4326000000015 8.08168118715477
3.3 2396.1269999999986 8.549969179650496
3.4 2391.7151999999996 8.882275822320763
3.5 2387.540999999999 9.57564054734159
3.6 2382.821400000001 9.114385006902763
3.7 2377.9524000000015 9.80280312916618
3.8000000000000003 2373.3695999999977 10.331523421849072
3.9000000000000004 2368.7273999999966 10.062692831793472
4.0 2364.009600000003 10.622629999586144
