# Rounds: 500, repetitions: 1000
# Good arm ~ N(5.0,0.0), 4 bad arm(s) ~ N(3.9,0.0)
# Observation noise range from 0.5 to 4.0 with step size 0.1

# Observation noise | mean | standard deviation

0.5 2492.5512999999987 5.04821778579457
0.6 2490.3050999999987 4.803006648221802
0.7 2487.4516999999996 5.1583762906515584
0.7999999999999999 2484.443200000003 4.435457929802377
0.8999999999999999 2481.3566 4.016023516475587
0.9999999999999999 2477.9004000000054 3.7060132722879393
1.0999999999999999 2473.804 4.29558797792293
1.1999999999999997 2470.2003999999965 3.8803578465158313
1.2999999999999996 2466.281100000002 3.456043551089438
1.3999999999999995 2461.942700000001 4.225389997459465
1.4999999999999993 2458.093799999999 4.018717662594795
1.5999999999999992 2453.3176000000008 5.0030571474670245
1.699999999999999 2448.851600000001 4.465586064437526
1.799999999999999 2444.6606 4.650093656154736
1.8999999999999988 2440.1835999999967 4.714959372240826
1.9999999999999987 2435.549300000004 5.080948291957418
2.0999999999999988 2430.9095 5.354941189699924
2.199999999999999 2425.9166 5.9790143880954965
2.299999999999999 2421.209699999997 6.258743306589401
2.399999999999999 2416.6722000000013 6.297148659611029
2.499999999999999 2412.079699999996 6.287531388467254
2.599999999999999 2407.5598000000023 6.8071757434049704
2.6999999999999993 2402.6119999999946 6.886807977875079
2.7999999999999994 2397.1867999999995 7.3475119388601176
2.8999999999999995 2393.3313000000035 7.622430830237924
2.9999999999999996 2388.6178000000004 7.665931754827319
3.0999999999999996 2383.644700000001 8.312374358598055
3.1999999999999997 2379.1325000000006 8.362182720429521
3.3 2373.866800000003 9.242071935104942
3.4 2368.8695 9.713626217035795
3.5 2364.9986000000044 9.410891717734458
3.6 2359.7934000000027 9.962745240782448
3.7 2355.1877000000063 10.88353389391611
3.8000000000000003 2351.2166999999995 10.556808102229912
3.9000000000000004 2345.8982000000065 10.593045330280141
4.0 2342.2110000000002 10.940594847430184
