# Rounds: 500, repetitions: 1000
# Good arm ~ N(5.0,0.0), 4 bad arm(s) ~ N(1.9,0.0)
# Observation noise range from 0.5 to 4.0 with step size 0.1

# Observation noise | mean | standard deviation

0.5 2490.5509000000043 3.836505958286445
0.6 2490.3741999999984 4.170953273678656
0.7 2490.1850999999965 4.699805971118995
0.7999999999999999 2489.4380000000024 5.528770505573794
0.8999999999999999 2488.864499999999 5.293553764859732
0.9999999999999999 2487.4509000000007 5.247105040048379
1.0999999999999999 2485.2219999999998 5.775551315068789
1.1999999999999997 2482.6707 5.075365094339581
1.2999999999999996 2480.224799999999 4.866506739731095
1.3999999999999995 2478.256299999998 4.621072886746618
1.4999999999999993 2475.7825000000016 4.621597441676706
1.5999999999999992 2473.3428000000004 4.607715182083095
1.699999999999999 2470.6830000000023 5.317238383223378
1.799999999999999 2468.2153999999996 5.186220176556283
1.8999999999999988 2465.0038 5.498059131567643
1.9999999999999987 2462.0991000000017 5.216767567551182
2.0999999999999988 2459.575699999999 5.349246109868568
2.199999999999999 2456.3331 5.293030375934034
2.299999999999999 2453.2269000000024 5.601369629986159
2.399999999999999 2450.2570999999994 5.916341156718589
2.499999999999999 2446.4874999999997 6.414570949835233
2.599999999999999 2443.027899999998 6.245540678625702
2.6999999999999993 2439.940300000005 6.311356362076902
2.7999999999999994 2436.1582999999982 6.793849240121343
2.8999999999999995 2432.4104000000016 6.988438316971089
2.9999999999999996 2428.1572000000006 7.258594585410808
3.0999999999999996 2424.886699999996 7.533865690483327
3.1999999999999997 2420.9775999999997 7.155907017649485
3.3 2417.406399999999 8.126101929742978
3.4 2413.528300000004 7.912269783262133
3.5 2408.986800000001 8.325349073594275
3.6 2405.272999999999 8.937150757577223
3.7 2400.905100000003 8.681994068819137
3.8000000000000003 2396.633300000002 9.350624325962668
3.9000000000000004 2391.9430000000025 9.597333995429114
4.0 2388.2540000000013 9.52453992909164
