# Rounds: 100, repetitions: 1000
# Good arm ~ N(5.0,1.0), 10 bad arm(s) ~ N(0.5,1.0)
# Observation noise range from 0.5 to 8.0 with step size 0.1

# Observation noise | mean | standard deviation

0.5 458.25623585669763 10.536535559169577
0.6 458.1145509914477 11.326058480195956
0.7 457.49750712389897 10.758206698500445
0.7999999999999999 457.57309488074947 11.069236641801266
0.8999999999999999 458.00197097861013 10.653015165446032
0.9999999999999999 456.48262483187864 11.467024602075572
1.0999999999999999 454.9394140267613 11.450685343782585
1.1999999999999997 454.37822917566564 12.463292964729908
1.2999999999999996 453.02121632480777 12.070779239905555
1.3999999999999995 450.3842501100049 13.157289054568002
1.4999999999999993 448.0758594626972 13.423176382798502
1.5999999999999992 445.5000326922692 14.275309855737529
1.699999999999999 441.59320272854575 15.281110443350721
1.799999999999999 438.3309257721578 15.45691755874457
1.8999999999999988 434.1578345166402 15.653912241831218
1.9999999999999987 429.57707606241576 16.186122563661826
2.0999999999999988 424.87071331627965 17.259428149459016
2.199999999999999 421.9060790922192 17.888019113651193
2.299999999999999 416.1314291005639 17.659524413049866
2.399999999999999 412.654618545774 17.693124569278353
2.499999999999999 405.78526032529044 18.55269066900772
2.599999999999999 401.4741339506281 20.062615542236486
2.6999999999999993 396.610215640059 21.236945146752863
2.7999999999999994 390.09576013619983 21.27348054052179
2.8999999999999995 385.35122537384433 21.962007516607624
2.9999999999999996 380.67633215284565 21.385995965608572
3.0999999999999996 377.09826639608946 22.37483673028223
3.1999999999999997 369.9578678718209 22.35941245760211
3.3 363.84736530310704 23.8660966174642
3.4 357.89082552121795 24.28815010255938
3.5 352.48125874210484 24.98406243649786
3.6 347.2877078469608 25.248610011365365
3.7 340.9538235660159 25.75726030193841
3.8000000000000003 335.1523636731219 26.642815897347198
3.9000000000000004 328.5900793262856 26.56538604768739
4.0 323.2923012696013 28.26126029207321
4.1 316.8527938962273 28.564846764356606
4.199999999999999 310.87912669391443 28.699915788385464
4.299999999999999 305.2881348658341 29.411625836390797
4.399999999999999 299.6488802693863 29.320242933562916
4.499999999999998 294.04877526335116 29.359618452824414
4.599999999999998 287.8916581702519 31.362148090340433
4.6999999999999975 280.14730743486 30.847149670566484
4.799999999999997 277.84786512363775 31.213133914636153
4.899999999999997 269.1162283311644 32.556847503874394
4.9999999999999964 265.74337927080535 33.03773228923595
5.099999999999996 260.38985378382966 31.937765796927025
5.199999999999996 252.81105308355086 33.24176537983464
5.299999999999995 248.71119042216185 34.15261069108344
5.399999999999995 242.59383695533182 32.96469393128001
5.499999999999995 238.15231913014614 31.382033083211166
5.599999999999994 231.94687412980196 34.02331659426137
5.699999999999994 227.52164822267923 33.0336946381315
5.799999999999994 222.90379268027687 33.65934019003021
5.899999999999993 219.56314109063555 33.01670675548107
5.999999999999993 213.04387558053378 34.49894194823784
6.0999999999999925 209.52658202195795 31.450288431266568
6.199999999999992 204.08448858686808 32.52766073778467
6.299999999999992 201.56186107718673 33.98446798017709
6.3999999999999915 196.2196785670195 34.92082217395246
6.499999999999991 192.17667783558346 33.49939700388855
6.599999999999991 188.9616665899263 33.52431477073041
6.69999999999999 183.9750479427841 32.39521243040882
6.79999999999999 180.90858395891885 32.56311908760692
6.89999999999999 180.23488159162451 32.80046042220812
6.999999999999989 175.95409485393265 31.340356850092736
7.099999999999989 171.5645351346647 31.30771446099299
7.199999999999989 168.48894036042745 30.725968389244752
7.299999999999988 167.7921459942341 30.935763950306598
7.399999999999988 162.5872710984844 31.21333233169579
7.499999999999988 161.19141483991186 30.90041760811226
7.599999999999987 159.52746595618675 29.82111477234303
7.699999999999987 156.59900719880034 30.659168919806582
7.7999999999999865 154.79334197378253 28.218911455763816
7.899999999999986 151.91558323148323 28.64611312090727
7.999999999999986 149.7225868139555 28.895943181986375
