# Rounds: 100, repetitions: 1000
# Good arm ~ N(5.0,1.0), 10 bad arm(s) ~ N(3.0,1.0)
# Observation noise range from 0.5 to 8.0 with step size 0.1

# Observation noise | mean | standard deviation

0.5 472.57465151911384 17.925746437945897
0.6 471.59368367664405 17.27648189189679
0.7 468.74810648222007 18.65496504257025
0.7999999999999999 467.53943030896147 17.43719945603954
0.8999999999999999 464.6387350381999 18.287418478550656
0.9999999999999999 462.1914913235693 16.430324789288623
1.0999999999999999 458.0544960996327 16.716054835012876
1.1999999999999997 456.0015725080488 16.75102523794737
1.2999999999999996 452.12462110628127 17.116927446621915
1.3999999999999995 448.4356462605002 18.118212748296905
1.4999999999999993 444.3841326838877 17.81478593103493
1.5999999999999992 440.06248870671305 19.37784487682747
1.699999999999999 437.0563692923527 19.238104775104723
1.799999999999999 432.5429092652677 20.20653650876597
1.8999999999999988 429.03180244361107 19.623463155282483
1.9999999999999987 424.94335159409474 20.80280275816133
2.0999999999999988 421.186096283263 20.851251424268636
2.199999999999999 416.37523134427613 22.310956074319904
2.299999999999999 413.91581020549546 21.932258747133773
2.399999999999999 408.57654103751463 22.255626978059688
2.499999999999999 407.29693727088375 23.038516304532696
2.599999999999999 401.84814263038515 21.73964116349426
2.6999999999999993 397.8371967913108 22.765162039226205
2.7999999999999994 395.81143801702234 23.677359778581557
2.8999999999999995 393.61239330971466 23.384548030637422
2.9999999999999996 389.35290919014705 22.998445520949694
3.0999999999999996 385.76079943577906 22.804542684826245
3.1999999999999997 384.9465758940954 21.780878894499647
3.3 381.5214455948137 22.34633137302361
3.4 377.5318041584943 22.14208975527954
3.5 374.7261279298279 22.486512635384322
3.6 371.55507823402115 22.96048292086601
3.7 371.599020603525 21.97690699617324
3.8000000000000003 368.8820383288256 21.345566142376423
3.9000000000000004 365.46292660437047 21.977341956484207
4.0 363.3821128376992 21.958687547715762
4.1 361.5386169275448 20.944265265438226
4.199999999999999 359.55971397859656 20.7861190207433
4.299999999999999 357.5774260201013 20.34030130514235
4.399999999999999 356.4812509888698 20.244832334550683
4.499999999999998 354.38923206934857 19.223988488082032
4.599999999999998 354.1466368135387 20.013883506917523
4.6999999999999975 351.84055712469797 19.690345888647165
4.799999999999997 350.4546782156477 19.633519506353462
4.899999999999997 350.03241563419334 19.489928109562864
4.9999999999999964 347.59870846801783 18.859352764513808
5.099999999999996 345.9678717612811 18.510094681511948
5.199999999999996 345.3264889006828 17.947557015419363
5.299999999999995 344.5441800141783 17.94512104881105
5.399999999999995 343.0249250423475 17.706109480894355
5.499999999999995 342.69864831205876 18.38325684502801
5.599999999999994 341.32012689985777 16.965281893818222
5.699999999999994 340.3773606028662 17.34953252143049
5.799999999999994 340.1623839860313 17.45627583347729
5.899999999999993 338.8352999435916 16.528986994407454
5.999999999999993 337.7521553921009 16.43410469744793
6.0999999999999925 336.6796407689666 16.454529200080284
6.199999999999992 336.5904800962122 16.443536905210006
6.299999999999992 336.45084824660796 16.181836266533466
6.3999999999999915 335.0585952437703 15.398268184497315
6.499999999999991 335.7271190585777 16.030832612748686
6.599999999999991 335.13748007063225 15.592320811872332
6.69999999999999 334.13664502866067 15.72909095206445
6.79999999999999 334.6952818826525 15.102604106019008
6.89999999999999 333.1002296677175 14.876784975611763
6.999999999999989 332.3029127022431 14.709368666634123
7.099999999999989 333.0048328005971 14.661589137088058
7.199999999999989 332.7211493383954 14.108765681250784
7.299999999999988 331.12944063810977 14.85046896973654
7.399999999999988 330.6210967340952 13.934607588910783
7.499999999999988 330.44360418688535 14.457950685354774
7.599999999999987 330.37630810728405 14.558282663356874
7.699999999999987 330.66896442859303 14.684985455037701
7.7999999999999865 329.44304327015846 14.000961779401424
7.899999999999986 329.58518662896785 14.104920458790712
7.999999999999986 329.06293685111825 14.10335264152833
