# Rounds: 100, repetitions: 1000
# Good arm ~ N(5.0,0.0), 10 bad arm(s) ~ N(2.0,0.0)
# Observation noise range from 0.5 to 8.0 with step size 0.1

# Observation noise | mean | standard deviation

0.5 473.1220000000002 4.2829265064275
0.6 472.76500000000004 4.682702499914198
0.7 472.3659999999995 5.423602074217753
0.7999999999999999 471.7180000000003 6.082883976986393
0.8999999999999999 471.1930000000004 6.3916041494763585
0.9999999999999999 469.1050000000002 7.487993392428013
1.0999999999999999 467.2719999999999 7.295700325756478
1.1999999999999997 464.2210000000001 7.945394155627996
1.2999999999999996 461.0110000000001 7.831232802516307
1.3999999999999995 456.9430000000001 8.124392700796589
1.4999999999999993 453.29200000000014 8.284525898889386
1.5999999999999992 449.16100000000006 8.746289303274601
1.699999999999999 444.46299999999957 9.535594294985412
1.799999999999999 441.11799999999965 9.255903399871219
1.8999999999999988 435.9339999999999 10.221649872996325
1.9999999999999987 432.86199999999997 9.394211366964615
2.0999999999999988 427.86399999999986 9.974316567614613
2.199999999999999 422.75200000000035 11.625904595241451
2.299999999999999 418.68399999999957 11.49697022368608
2.399999999999999 413.8630000000001 12.004263131626765
2.499999999999999 409.78600000000023 12.17564989848388
2.599999999999999 404.6349999999998 12.99687245816065
2.6999999999999993 400.267 13.210383235365484
2.7999999999999994 394.95399999999995 13.912492280013735
2.8999999999999995 391.6210000000003 13.910314728857012
2.9999999999999996 386.3079999999998 14.376502350009105
3.0999999999999996 381.1990000000001 15.759370442906551
3.1999999999999997 376.4620000000003 16.074232079229695
3.3 371.4759999999999 15.891506031964601
3.4 367.5790000000003 16.544711737787587
3.5 361.89100000000013 18.04718315471474
3.6 357.83500000000015 17.681357566810455
3.7 353.25999999999976 18.0154088200894
3.8000000000000003 349.0420000000008 18.346957427509526
3.9000000000000004 343.69899999999967 19.780487017934306
4.0 340.7259999999997 19.590270613309595
4.1 335.7820000000001 19.97051069195022
4.199999999999999 331.57299999999975 20.346662076558317
4.299999999999999 327.4 19.58442109304099
4.399999999999999 323.2449999999996 20.818125981206112
4.499999999999998 320.15499999999986 19.543155065390785
4.599999999999998 316.45899999999983 19.901919641215674
4.6999999999999975 312.7690000000001 20.2611488606435
4.799999999999997 307.56699999999927 21.21347502231833
4.899999999999997 306.2889999999999 20.199195194029095
4.9999999999999964 302.6349999999998 21.084979282687154
5.099999999999996 299.1789999999997 20.475991434487987
5.199999999999996 295.85799999999995 20.85561777538111
5.299999999999995 292.47399999999993 21.170486851121606
5.399999999999995 289.8459999999997 20.652089308173945
5.499999999999995 287.9529999999998 19.803357391209307
5.599999999999994 285.95499999999953 19.701094084037774
5.699999999999994 282.4210000000002 20.37436806072459
5.799999999999994 281.2990000000007 19.70217690446349
5.899999999999993 278.0680000000001 20.13317463095974
5.999999999999993 275.7790000000001 19.19068632022937
6.0999999999999925 275.3799999999995 19.797715765955175
6.199999999999992 272.3260000000001 18.74307944354468
6.299999999999992 271.51600000000036 18.239748694333294
6.3999999999999915 269.488 18.3911416200869
6.499999999999991 267.9189999999998 18.128736582842457
6.599999999999991 265.834 18.13580302471748
6.69999999999999 263.89300000000003 17.514174182567057
6.79999999999999 262.5880000000002 17.265698953716335
6.89999999999999 262.2039999999996 17.929133772657234
6.999999999999989 260.12500000000045 17.320085460538596
7.099999999999989 259.837 16.68228790453306
7.199999999999989 257.35599999999994 17.033008759094482
7.299999999999988 256.5010000000001 16.461560739552674
7.399999999999988 256.393 16.697045916638743
7.499999999999988 254.29300000000006 16.45174187771047
7.599999999999987 254.05599999999967 15.860340929955271
7.699999999999987 253.73200000000008 15.916013806713515
7.7999999999999865 252.994 15.287042148749972
7.899999999999986 251.6800000000001 15.876323808037471
7.999999999999986 251.49699999999999 15.201350994963303
