# Rounds: 100, repetitions: 1000
# Good arm ~ N(5.0,1.0), 10 bad arm(s) ~ N(0.0,1.0)
# Observation noise range from 0.5 to 8.0 with step size 0.1

# Observation noise | mean | standard deviation

0.5 454.4197910388426 10.590659481710409
0.6 454.04051621317313 10.24653249475121
0.7 453.70481925079764 10.978518418958746
0.7999999999999999 453.67227168514376 10.282560514444317
0.8999999999999999 453.69269812063845 10.82133376013545
0.9999999999999999 452.5799844663347 10.864921996994262
1.0999999999999999 451.7279266947778 11.308574709893145
1.1999999999999997 451.65927077995786 11.952384538187621
1.2999999999999996 450.79101013766103 11.584877961616229
1.3999999999999995 448.25515244637273 12.394416243576138
1.4999999999999993 446.2323643645809 13.48665374555947
1.5999999999999992 443.2606823130878 14.006723332680599
1.699999999999999 441.38640664453663 13.961846273072213
1.799999999999999 438.3803675789197 14.755692100667668
1.8999999999999988 433.2860899137896 16.243228120866434
1.9999999999999987 430.4157831024228 16.358430988741006
2.0999999999999988 425.87706465212796 16.997186341063642
2.199999999999999 421.8105262474334 16.69433761021102
2.299999999999999 416.5324885546122 18.19821734932513
2.399999999999999 411.5264008754016 17.880255337389997
2.499999999999999 406.93819501452447 18.314736481533476
2.599999999999999 400.45569590470785 19.327845537591894
2.6999999999999993 396.9485432114381 21.03870684726782
2.7999999999999994 390.33236429541245 20.91636605342246
2.8999999999999995 385.87452570701254 20.48876110209275
2.9999999999999996 380.29389136478846 20.438335482632972
3.0999999999999996 373.96661626098245 21.806275424346328
3.1999999999999997 367.26567541769293 23.39453438545616
3.3 363.211933082221 23.941179396750087
3.4 357.42646546828536 25.215732856907913
3.5 349.31288038610256 25.046595847405026
3.6 344.56252984895224 24.318736466525543
3.7 339.9828012127013 26.211377858250913
3.8000000000000003 333.35634459307187 26.66337013551558
3.9000000000000004 324.37263254178316 27.51197156444995
4.0 319.77694690916337 28.21929056893293
4.1 314.90178965718627 28.115720074277718
4.199999999999999 308.4425639603478 27.192015055149014
4.299999999999999 301.29069749032357 28.926813272082235
4.399999999999999 296.2854748770946 31.118194788574527
4.499999999999998 290.08763952891627 29.97649763306656
4.599999999999998 284.6321722090971 31.341418906133654
4.6999999999999975 275.19668180752996 31.937274210188452
4.799999999999997 269.0411319017423 32.31266018006007
4.899999999999997 263.88300007675326 32.271893197259885
4.9999999999999964 257.92672731444486 33.11364196575371
5.099999999999996 250.30414969687925 33.16529402341353
5.199999999999996 245.32223450565775 32.612143504552634
5.299999999999995 240.005677818045 32.31782737424556
5.399999999999995 233.8113659779493 34.272089458599424
5.499999999999995 228.79580536076273 33.54746442009909
5.599999999999994 222.18247735034197 35.8870839626723
5.699999999999994 215.94962572358847 35.18651550064535
5.799999999999994 210.4958952909952 35.3982613138319
5.899999999999993 202.5291795225777 35.805398990699416
5.999999999999993 198.38438374917868 35.03206578483162
6.0999999999999925 193.57045261928687 36.413729232048404
6.199999999999992 188.83085246449167 35.95838572701319
6.299999999999992 182.67645478986276 36.28546632263123
6.3999999999999915 179.6765501391297 35.22557928666371
6.499999999999991 174.50561186472646 34.83071598774232
6.599999999999991 168.73822850784958 34.523496902453225
6.69999999999999 164.3441481807066 35.08426195268257
6.79999999999999 161.07943743299094 36.42685172231744
6.89999999999999 155.18067404169653 36.26026904076332
6.999999999999989 155.72515618617214 34.4863541521559
7.099999999999989 149.38299656731138 35.269477372645866
7.199999999999989 144.9483137850608 33.277206307562686
7.299999999999988 143.28625053497868 34.247847816448726
7.399999999999988 140.76412869725885 32.94351282178234
7.499999999999988 134.6522840152053 32.71743871347161
7.599999999999987 130.93306725395678 32.58087364139718
7.699999999999987 129.02200594780194 33.57761892398664
7.7999999999999865 126.98061529833302 32.58105816004593
7.899999999999986 122.37025066520332 33.40045338180394
7.999999999999986 121.56355008878805 31.865970653284077
