# Rounds: 100, repetitions: 1000
# Good arm ~ N(5.0,0.0), 10 bad arm(s) ~ N(3.0,0.0)
# Observation noise range from 0.5 to 8.0 with step size 0.1

# Observation noise | mean | standard deviation

0.5 481.45 6.10563500209265
0.6 480.3600000000001 7.281993369087035
0.7 478.63799999999975 7.577491298205129
0.7999999999999999 476.1960000000004 7.564311125462959
0.8999999999999999 473.1059999999994 7.132716147418163
0.9999999999999999 469.3440000000007 7.1181691699714795
1.0999999999999999 465.24199999999956 7.901383921052537
1.1999999999999997 461.5460000000007 7.784502712600357
1.2999999999999996 458.0800000000002 7.716290633532472
1.3999999999999995 454.27199999999937 7.69006847519273
1.4999999999999993 450.4300000000001 8.370254545780629
1.5999999999999992 446.0959999999997 8.646012811552934
1.699999999999999 442.3480000000001 8.578606442102847
1.799999999999999 438.06600000000003 8.748495881017519
1.8999999999999988 433.77600000000007 9.919285065780505
1.9999999999999987 429.588 10.287083166771819
2.0999999999999988 424.7279999999998 10.707037716224644
2.199999999999999 422.4800000000003 10.684744440732487
2.299999999999999 418.1339999999994 11.11870809355426
2.399999999999999 413.91999999999945 12.140056877172405
2.499999999999999 410.5360000000002 12.116580190611344
2.599999999999999 407.11000000000007 12.96641924464993
2.6999999999999993 403.2600000000001 13.07483657073201
2.7999999999999994 399.7060000000003 13.183906074429519
2.8999999999999995 396.23400000000004 13.30241324715924
2.9999999999999996 391.62800000000016 14.50351571061196
3.0999999999999996 389.3339999999994 14.5997807379973
3.1999999999999997 385.8980000000003 14.513726063428509
3.3 382.8979999999999 15.232912972824257
3.4 380.46799999999996 14.802164709260609
3.5 377.3300000000001 14.803859437803863
3.6 375.3860000000003 14.56499718994627
3.7 372.14399999999955 15.605088361902421
3.8000000000000003 368.4099999999998 15.458812207762735
3.9000000000000004 368.03 15.405857341947602
4.0 365.6139999999998 15.526366995278458
4.1 363.0220000000004 15.27811954845675
4.199999999999999 360.1439999999997 14.65530764064823
4.299999999999999 358.9459999999997 14.404741600618179
4.399999999999999 357.7959999999999 14.172905674393487
4.499999999999998 355.81999999999994 13.91809301999789
4.599999999999998 354.3379999999999 14.026920920519599
4.6999999999999975 353.49399999999997 14.085395356977473
4.799999999999997 350.47999999999973 14.197858260286276
4.899999999999997 349.5920000000002 13.674374739801626
4.9999999999999964 347.54199999999963 13.682742906795175
5.099999999999996 346.84800000000024 13.533663807559883
5.199999999999996 345.8959999999998 13.611703143341865
5.299999999999995 345.02799999999996 13.176829848064553
5.399999999999995 344.25000000000017 13.055111486920973
5.499999999999995 342.63799999999947 12.788295292825252
5.599999999999994 341.9179999999998 12.547458496233993
5.699999999999994 340.4040000000004 12.374729003817341
5.799999999999994 339.4340000000005 11.87757217282726
5.899999999999993 339.1980000000005 12.109477091742463
5.999999999999993 338.3079999999997 11.670189772635618
6.0999999999999925 337.9579999999998 11.731319612893516
6.199999999999992 337.40399999999994 11.502046821374067
6.299999999999992 336.298 11.44282020020126
6.3999999999999915 335.3119999999999 11.223039366081379
6.499999999999991 335.1060000000002 10.971651705242046
6.599999999999991 334.9119999999995 10.680183627743586
6.69999999999999 333.53400000000016 10.497859260299169
6.79999999999999 333.6860000000005 10.449238756511926
6.89999999999999 333.4560000000003 10.331059713059206
6.999999999999989 333.1159999999999 9.983096023088535
7.099999999999989 331.53200000000015 10.377314906307097
7.199999999999989 331.60000000000025 10.516206093006678
7.299999999999988 330.4500000000003 9.630069482523876
7.399999999999988 330.5979999999994 9.7759892576642
7.499999999999988 330.9540000000005 9.707735272663959
7.599999999999987 330.0999999999999 9.491474494939563
7.699999999999987 329.8039999999998 9.367675129792746
7.7999999999999865 329.6199999999999 9.62393995306603
7.899999999999986 328.7539999999999 9.062980835333466
7.999999999999986 328.8659999999992 9.067980606081614
