# Rounds: 1000, repetitions: 1000
# Good arm ~ N(5.0,0.0), 13 bad arm(s) ~ N(0.5,0.0)
# Observation noise range from 0.5 to 8.0 with step size 0.1

# Observation noise | mean | standard deviation

0.5 4946.0860000000075 1.8646932941052565
0.6 4945.973500000003 2.1465449926347464
0.7 4945.833999999999 2.4581469619382768
0.7999999999999999 4945.604500000001 2.859546599857568
0.8999999999999999 4945.406500000004 3.434574799600988
0.9999999999999999 4945.060000000004 4.110632225983924
1.0999999999999999 4944.205000000007 4.927652256070522
1.1999999999999997 4942.148499999995 5.406285756013588
1.2999999999999996 4937.554 7.430565072543085
1.3999999999999995 4929.332499999993 8.864720922117469
1.4999999999999993 4919.077 8.974246938217622
1.5999999999999992 4907.426500000006 8.338907910220346
1.699999999999999 4897.931500000004 7.638121408347001
1.799999999999999 4889.259999999998 6.704576895774355
1.8999999999999988 4881.637000000001 7.016299555995236
1.9999999999999987 4874.499999999994 7.7746990903793805
2.0999999999999988 4865.850999999997 8.38908074080084
2.199999999999999 4855.910500000001 9.294548314919803
2.299999999999999 4845.430000000002 9.540525227765032
2.399999999999999 4835.170000000002 9.884877885477893
2.499999999999999 4824.316000000003 10.100404059351371
2.599999999999999 4813.205499999995 10.08078081757025
2.6999999999999993 4802.3829999999925 10.3935960012807
2.7999999999999994 4791.2905000000055 10.995010231918862
2.8999999999999995 4780.229499999996 10.965916791635852
2.9999999999999996 4768.889499999986 11.572660291230182
3.0999999999999996 4756.4965 11.945205133260668
3.1999999999999997 4744.1980000000085 12.013559906273482
3.3 4731.507999999996 12.62704947239772
3.4 4718.404000000003 13.192946518417937
3.5 4706.762499999998 13.750214986034312
3.6 4693.199500000002 14.207068330255279
3.7 4679.249500000002 14.09548446958923
3.8000000000000003 4665.708999999992 14.548332308995889
3.9000000000000004 4653.131500000003 14.749084488307865
4.0 4638.7810000000045 16.1266583056784
4.1 4624.484500000011 15.90927763491687
4.199999999999999 4609.139500000002 16.646182299107984
4.299999999999999 4596.287500000002 17.639621594580813
4.399999999999999 4581.887500000003 17.154923058269205
4.499999999999998 4565.962 17.581799557373966
4.599999999999998 4551.287500000009 19.121786958505897
4.6999999999999975 4535.056 18.73898379084399
4.799999999999997 4520.525499999996 18.949120531542334
4.899999999999997 4505.891499999998 19.902514610918946
4.9999999999999964 4490.069500000004 20.490419152058042
5.099999999999996 4474.018000000006 21.00867774374532
5.199999999999996 4457.363500000002 21.38886629420433
5.299999999999995 4440.407499999995 21.19636713518924
5.399999999999995 4423.456 21.993016090494642
5.499999999999995 4407.976000000006 22.121783320910126
5.599999999999994 4390.209999999998 23.330875031376955
5.699999999999994 4373.434000000003 23.84701919159551
5.799999999999994 4358.201500000002 23.704990494077887
5.899999999999993 4339.418500000003 24.29729339280857
5.999999999999993 4323.178000000002 24.043770896407118
6.0999999999999925 4304.939500000007 25.908586310229175
6.199999999999992 4287.929500000003 25.491333582961836
6.299999999999992 4268.156499999997 26.21414578408371
6.3999999999999915 4251.006999999989 26.69918158478452
6.499999999999991 4233.8485 27.76408006565118
6.599999999999991 4216.0689999999995 28.415905804719646
6.69999999999999 4196.705499999996 29.312860036398956
6.79999999999999 4178.228499999996 28.76810980742204
6.89999999999999 4157.641000000001 30.036058060001544
6.999999999999989 4142.030499999995 31.262151907568587
7.099999999999989 4122.383499999994 32.055978592354855
7.199999999999989 4100.252499999994 30.50984832139606
7.299999999999988 4081.1589999999974 32.427839641021166
7.399999999999988 4062.042999999996 32.37863534843664
7.499999999999988 4046.3064999999997 33.21098127166702
7.599999999999987 4022.9514999999965 34.562725293728334
7.699999999999987 4005.9054999999994 34.48988071335737
7.7999999999999865 3983.5269999999996 34.00078417219703
7.899999999999986 3962.719 35.92562023388309
7.999999999999986 3944.8404999999966 37.45746750144253
