# Rounds: 10000, repetitions: 1000
# Good arm ~ N(5.0,0.0), 13 bad arm(s) ~ N(0.5,0.0)
# Observation noise range from 0.5 to 8.0 with step size 0.1

# Observation noise | mean | standard deviation

0.5 49946.08599999999 1.8646932941052548
0.6 49945.9735 2.146544992634789
0.7 49945.83399999999 2.4581469619382714
0.7999999999999999 49945.60000000004 2.8898704731097187
0.8999999999999999 49945.361500000006 3.466999832396572
0.9999999999999999 49944.42999999997 4.314651343528942
1.0999999999999999 49939.93900000002 6.229131647435406
1.1999999999999997 49927.43800000006 8.109433945653553
1.2999999999999996 49907.10250000001 7.809784663259663
1.3999999999999995 49892.014 4.7441343584273925
1.4999999999999993 49886.03350000001 3.624329388109433
1.5999999999999992 49880.471499999985 5.769334708003395
1.699999999999999 49870.45000000005 7.476991735009828
1.799999999999999 49855.600000000006 8.829465411872867
1.8999999999999988 49839.314499999986 7.466464212586615
1.9999999999999987 49825.9 7.0038599396371755
2.0999999999999988 49813.268500000006 7.691541949932289
2.199999999999999 49799.368 8.608116848398103
2.299999999999999 49783.820500000045 9.087635273538622
2.399999999999999 49767.73300000001 8.754447518339079
2.499999999999999 49751.712999999974 9.22489727475215
2.599999999999999 49735.17099999997 9.555551662126504
2.6999999999999993 49718.48949999997 9.983877882244274
2.7999999999999994 49700.75499999998 10.264640170889468
2.8999999999999995 49683.331000000006 10.222863881806644
2.9999999999999996 49665.59200000002 10.98975936091456
3.0999999999999996 49646.71899999999 11.589320573327418
3.1999999999999997 49627.61200000002 11.701961027618184
3.3 49608.244000000086 12.556178623355963
3.4 49587.95349999999 12.539131451881703
3.5 49568.35150000003 12.975479213147016
3.6 49547.13400000002 13.075531098716896
3.7 49527.356500000045 13.18979258284136
3.8000000000000003 49505.53149999996 13.752850564470233
3.9000000000000004 49483.86400000003 13.959257317811307
4.0 49461.2334999999 14.982713688096025
4.1 49439.035000000025 14.901772976321944
4.199999999999999 49415.89150000001 15.056266765666646
4.299999999999999 49391.82099999994 15.713668520698219
4.399999999999999 49369.46950000004 15.910577180486507
4.499999999999998 49345.452999999994 16.463500169703877
4.599999999999998 49321.07650000003 16.297100761891514
4.6999999999999975 49297.483000000015 17.388791823501737
4.799999999999997 49272.90400000003 16.303284364847503
4.899999999999997 49246.988500000014 17.18373936745576
4.9999999999999964 49221.07749999999 18.10609218810968
5.099999999999996 49196.54799999998 18.342277261429
5.199999999999996 49168.69750000011 19.41664878396886
5.299999999999995 49143.6414999999 19.26754956438977
5.399999999999995 49117.559500000076 19.301651833807295
5.499999999999995 49089.68649999995 19.193849838467138
5.599999999999994 49062.75849999998 19.76649037871648
5.699999999999994 49034.70550000002 21.371880521541026
5.799999999999994 49007.19250000002 20.911383974518085
5.899999999999993 48978.68500000002 21.291937948942575
5.999999999999993 48950.5375 21.496719580035997
6.0999999999999925 48921.10750000001 21.388669171290672
6.199999999999992 48891.48849999995 20.991885980707504
6.299999999999992 48863.06650000004 22.79972928359907
6.3999999999999915 48833.73549999996 23.0926624885657
6.499999999999991 48802.65850000007 23.45756562678941
6.599999999999991 48773.82249999998 24.45223211499123
6.69999999999999 48742.83100000006 24.42432161773355
6.79999999999999 48712.71249999999 24.181901457662615
6.89999999999999 48680.54200000004 25.48569710164425
6.999999999999989 48650.3065 24.621657819565723
7.099999999999989 48617.668 25.66851473398193
7.199999999999989 48585.830500000004 25.95787608956248
7.299999999999988 48552.219999999994 26.996396155883563
7.399999999999988 48520.59399999999 27.190236721532454
7.499999999999988 48488.94100000006 26.60994378250565
7.599999999999987 48454.80399999999 27.31121539746055
7.699999999999987 48422.83149999996 25.916452694577462
7.7999999999999865 48388.883500000025 27.60076049187274
7.899999999999986 48353.98150000001 28.655532577449925
7.999999999999986 48322.23399999999 28.885127567566546
