# Rounds: 50, repetitions: 1000
# Good arm ~ N(5.0,0.0), 1 bad arm(s) ~ N(3.9,0.0)
# Observation noise range from 0.5 to 4.0 with step size 0.1

# Observation noise | mean | standard deviation

0.5 249.56490000000005 5.714127163376717
0.6 249.71780000000015 5.046332195627685
0.7 249.17549999999997 5.822106721512119
0.7999999999999999 248.81470000000007 4.984031950588269
0.8999999999999999 247.9852999999999 5.5024076912203155
0.9999999999999999 247.31209999999976 5.884897246817941
1.0999999999999999 247.00519999999997 5.272104707614232
1.1999999999999997 246.2307999999999 4.864783394713219
1.2999999999999996 245.58619999999988 5.686197534592185
1.3999999999999995 245.25070000000005 5.433223668268165
1.4999999999999993 244.57419999999988 5.634938055283899
1.5999999999999992 243.7271999999996 5.576924084317649
1.699999999999999 242.8857000000003 6.00993551003958
1.799999999999999 242.10140000000013 6.142109046861949
1.8999999999999988 241.3226000000001 5.76919863524327
1.9999999999999987 240.98380000000012 6.0033422089430815
2.0999999999999988 239.8035000000001 6.115216563918522
2.199999999999999 239.14350000000002 6.1868922235145964
2.299999999999999 238.38010000000028 6.5503665005319425
2.399999999999999 237.9675999999999 6.611344804207374
2.499999999999999 237.14589999999984 6.833313791080222
2.599999999999999 236.09320000000005 6.796614431297948
2.6999999999999993 235.3804000000001 7.125339732693867
2.7999999999999994 234.859 7.4262202867776335
2.8999999999999995 233.91299999999976 7.169061754961127
2.9999999999999996 233.77110000000005 7.133366646241421
3.0999999999999996 232.99779999999984 7.289266668778717
3.1999999999999997 232.42030000000003 7.248882963202959
3.3 231.42589999999979 7.39134434058924
3.4 230.60090000000002 7.308204912907721
3.5 230.45680000000016 7.167334542523066
3.6 229.82320000000007 7.414104848915371
3.7 229.6526999999999 7.275391675644264
3.8000000000000003 228.97619999999995 7.470381527081478
3.9000000000000004 228.33710000000008 7.581656488202625
4.0 227.84760000000006 7.2456133731488075
