# Rounds: 50, repetitions: 1000
# Good arm ~ N(5.0,0.0), 1 bad arm(s) ~ N(1.4,0.0)
# Observation noise range from 0.5 to 4.0 with step size 0.1

# Observation noise | mean | standard deviation

0.5 249.57840000000004 3.44714029540668
0.6 249.5531999999999 3.6798901276194917
0.7 249.2652000000001 4.0000286485460865
0.7999999999999999 249.24000000000018 3.8083833556751547
0.8999999999999999 249.24000000000007 3.8422966105238827
0.9999999999999999 249.29759999999987 3.7378022159292397
1.0999999999999999 248.8763999999998 4.36932649890735
1.1999999999999997 248.4984 4.358572540935244
1.2999999999999996 248.5668 4.1092607344610945
1.3999999999999995 247.9152000000002 4.347563716642938
1.4999999999999993 247.5911999999998 4.379760822792145
1.5999999999999992 247.10159999999988 4.405938007930856
1.699999999999999 246.43560000000008 4.664797205985805
1.799999999999999 246.18000000000015 4.518071820253959
1.8999999999999988 245.54280000000006 4.552926234554799
1.9999999999999987 244.8299999999998 4.9021230921725065
2.0999999999999988 244.31519999999983 4.820195353224087
2.199999999999999 243.63120000000012 4.9713157755810435
2.299999999999999 243.0552 4.7522981069475705
2.399999999999999 242.53320000000008 4.773753919766519
2.499999999999999 241.78080000000003 5.249761075644426
2.599999999999999 240.87719999999993 5.707543798887207
2.6999999999999993 240.21840000000003 4.978783960941647
2.7999999999999994 239.18519999999984 5.888202772654135
2.8999999999999995 238.36799999999997 5.780414274875919
2.9999999999999996 237.36000000000004 6.144212834151456
3.0999999999999996 236.69759999999997 5.97393690644304
3.1999999999999997 236.0136000000002 6.119802858509975
3.3 235.2755999999999 5.996278846084466
3.4 234.1632000000001 6.743218575484315
3.5 232.92479999999986 6.956770919156514
3.6 232.01760000000021 6.6438777345275914
3.7 231.2075999999997 7.385114905142803
3.8000000000000003 229.97640000000007 7.389048726397848
3.9000000000000004 228.79919999999996 7.492020403718202
4.0 228.2124000000003 7.76396582974225
