# Rounds: 10000, repetitions: 1000
# Good arm ~ N(5.0,0.0), 13 bad arm(s) ~ N(2.0,0.0)
# Observation noise range from 0.5 to 8.0 with step size 0.1

# Observation noise | mean | standard deviation

0.5 49964.22700000001 4.257181531787736
0.6 49964.055999999975 4.291302748499505
0.7 49962.247 5.377630510727705
0.7999999999999999 49954.13800000001 6.287327451826128
0.8999999999999999 49935.86499999999 5.266736514532844
0.9999999999999999 49926.05499999996 2.9282331788212637
1.0999999999999999 49920.39399999999 4.273526298857572
1.1999999999999997 49908.382000000034 5.571455565390153
1.2999999999999996 49893.085 5.279550042252578
1.3999999999999995 49879.93000000001 5.12184862460161
1.4999999999999993 49866.80799999993 5.962271772125532
1.5999999999999992 49851.10600000002 5.942059581666323
1.699999999999999 49835.674000000006 6.283566440104474
1.799999999999999 49819.75000000009 6.681627357473936
1.8999999999999988 49802.94699999999 7.0133713988621595
1.9999999999999987 49785.45999999996 7.425061045643447
2.0999999999999988 49767.63999999991 7.700239846504427
2.199999999999999 49748.84500000005 7.787015642247868
2.299999999999999 49729.726 8.219640289361045
2.399999999999999 49709.770000000106 8.715679150993529
2.499999999999999 49689.852999999996 8.843279628881808
2.599999999999999 49669.00900000006 9.197037811409965
2.6999999999999993 49648.00900000001 9.806685989165329
2.7999999999999994 49625.36200000006 9.812606343028445
2.8999999999999995 49603.59100000003 10.500189187484711
2.9999999999999996 49580.94999999998 10.71056563474669
3.0999999999999996 49558.78599999995 10.539225743823788
3.1999999999999997 49534.84000000001 11.144262855594917
3.3 49509.919000000045 11.750511202220586
3.4 49485.47799999999 11.938175574016261
3.5 49461.33699999999 12.74778164768041
3.6 49435.38999999997 12.115472945150978
3.7 49409.8870000001 13.23977048602133
3.8000000000000003 49384.692999999985 14.026885060643684
3.9000000000000004 49356.892000000014 13.673379146988353
4.0 49330.56699999999 14.112571547229578
4.1 49303.85200000003 14.651305633176808
4.199999999999999 49275.633999999955 15.250791147695532
4.299999999999999 49247.377000000044 15.565125895544334
4.399999999999999 49218.63099999997 15.284058408729086
4.499999999999998 49190.43699999999 16.622344399432077
4.599999999999998 49161.15999999999 15.932741517147944
4.6999999999999975 49132.53999999998 16.165138777990986
4.799999999999997 49102.21 16.765231074249368
4.899999999999997 49071.459999999985 16.820622263558924
4.9999999999999964 49042.156000000025 17.501942234563042
5.099999999999996 49010.626000000004 17.234010999623255
5.199999999999996 48978.256 17.657016572293124
5.299999999999995 48947.532999999996 18.175292356720323
5.399999999999995 48916.30599999999 19.179473825322166
5.499999999999995 48883.92999999997 20.630577323980123
5.599999999999994 48851.926000000014 19.029573002268037
5.699999999999994 48818.01400000005 19.411094626388156
5.799999999999994 48786.39099999998 20.706832010036887
5.899999999999993 48752.42500000004 20.976472234086103
5.999999999999993 48718.75300000001 20.37574936443221
6.0999999999999925 48684.69999999997 22.018010645668948
6.199999999999992 48651.68500000006 21.25180967387047
6.299999999999992 48615.924999999974 22.45884624763195
6.3999999999999915 48581.17299999996 22.45759146512413
6.499999999999991 48546.046 23.104711894150594
6.599999999999991 48510.75100000006 22.659665916766205
6.69999999999999 48475.87599999997 23.159987241123545
6.79999999999999 48437.92000000004 23.692930484745013
6.89999999999999 48402.85300000002 24.4276093611123
6.999999999999989 48367.186 24.882092406438066
7.099999999999989 48329.85399999999 25.170423799257858
7.199999999999989 48293.72799999997 25.77977138402544
7.299999999999988 48256.503999999986 25.13598619115223
7.399999999999988 48219.55000000002 26.150207137484067
7.499999999999988 48180.73599999999 27.280368812069224
7.599999999999987 48143.96800000004 26.13851943393517
7.699999999999987 48105.66700000001 26.670272109868247
7.7999999999999865 48066.16600000001 27.262606142731343
7.899999999999986 48028.39900000004 28.635848351512404
7.999999999999986 47990.11299999998 28.499938201292363
