# Rounds: 10000, repetitions: 1000
# Good arm ~ N(5.0,0.0), 13 bad arm(s) ~ N(4.5,0.0)
# Observation noise range from 0.5 to 8.0 with step size 0.1

# Observation noise | mean | standard deviation

0.5 49924.69899999995 1.756412247732287
0.6 49896.117000000006 2.1418212806857504
0.7 49864.623500000045 2.465679891495917
0.7999999999999999 49830.29950000002 2.847131171180165
0.8999999999999999 49793.34350000002 3.1613686912478136
0.9999999999999999 49754.01749999995 3.5988742192032155
1.0999999999999999 49712.384499999986 3.767904836491597
1.1999999999999997 49668.784500000045 4.331520728545781
1.2999999999999996 49623.014500000005 4.506311861888466
1.3999999999999995 49576.05250000004 4.750585417799723
1.4999999999999993 49527.080500000084 5.062993546673079
1.5999999999999992 49476.817500000005 5.2691752635453515
1.699999999999999 49425.673500000004 5.929739417508977
1.799999999999999 49372.60199999995 6.174886656872733
1.8999999999999988 49318.88000000003 6.426499817155461
1.9999999999999987 49263.6115 6.767134686251032
2.0999999999999988 49207.76999999997 7.419983568455977
2.199999999999999 49151.526500000014 7.544001571428046
2.299999999999999 49093.548000000046 8.005078218061088
2.399999999999999 49036.24800000001 7.990829077720929
2.499999999999999 48977.70600000002 8.752866769046394
2.599999999999999 48919.334999999985 8.985099165118134
2.6999999999999993 48859.81399999993 9.213864514919848
2.7999999999999994 48800.26999999993 9.850006224496745
2.8999999999999995 48740.06750000003 9.828544858932258
2.9999999999999996 48680.715 10.499238496624827
3.0999999999999996 48621.089000000014 10.712788751900337
3.1999999999999997 48561.23100000005 10.780949302722247
3.3 48501.72399999997 11.07013423007476
3.4 48441.66049999997 11.690943842047957
3.5 48383.2645 12.17396793347366
3.6 48324.47549999997 12.158535262511256
3.7 48266.12350000004 12.374778094288516
3.8000000000000003 48207.26550000004 12.869649864609153
3.9000000000000004 48149.99249999996 13.209662711021032
4.0 48092.07650000007 13.325294038452164
4.1 48035.71000000004 13.461523413515003
4.199999999999999 47980.263500000015 13.855460711991585
4.299999999999999 47924.853999999905 14.121830975837018
4.399999999999999 47870.54299999994 14.318473021578482
4.499999999999998 47816.725 14.908660004948233
4.599999999999998 47763.70050000005 15.128910525338123
4.6999999999999975 47711.60050000001 15.195214519522152
4.799999999999997 47661.403999999944 15.779092615349057
4.899999999999997 47610.60149999997 15.735614297106657
4.9999999999999964 47560.62249999998 16.028276557365665
5.099999999999996 47512.187500000015 16.409962846716944
5.199999999999996 47465.71650000004 16.01214434473139
5.299999999999995 47418.14100000005 16.250575380588767
5.399999999999995 47373.30900000003 17.12366020273531
5.499999999999995 47329.81650000005 17.094452259374904
5.599999999999994 47285.55450000002 16.49413035252493
5.699999999999994 47242.265999999945 17.01578034592535
5.799999999999994 47201.65850000007 17.184904675286855
5.899999999999993 47160.191500000015 18.113218002785242
5.999999999999993 47120.82400000006 17.71161272231364
6.0999999999999925 47082.59350000002 17.713632618142697
6.199999999999992 47046.17749999996 18.518076652636147
6.299999999999992 47009.43799999996 17.66579282784201
6.3999999999999915 46972.75549999999 18.454349969120603
6.499999999999991 46939.441000000006 18.856260964930897
6.599999999999991 46905.11850000001 18.038128556805187
6.69999999999999 46871.79999999998 19.07083366548758
6.79999999999999 46841.67900000001 18.76132848298447
6.89999999999999 46809.97850000003 19.00759259681073
6.999999999999989 46779.64949999997 19.199036505844607
7.099999999999989 46751.470000000016 18.90955237892128
7.199999999999989 46723.131 19.239789721005483
7.299999999999988 46694.975 18.91370146489313
7.399999999999988 46668.71550000003 18.827487459404487
7.499999999999988 46643.21699999992 19.154250084414628
7.599999999999987 46617.70499999996 18.664225896841334
7.699999999999987 46594.94249999993 19.03126724322061
7.7999999999999865 46569.32399999994 19.676831597127144
7.899999999999986 46547.28999999991 18.387849602740815
7.999999999999986 46524.17099999999 18.506032320090355
