# Rounds: 10000, repetitions: 1000
# Good arm ~ N(5.0,0.0), 13 bad arm(s) ~ N(4.9,0.0)
# Observation noise range from 0.5 to 8.0 with step size 0.1

# Observation noise | mean | standard deviation

0.5 49783.41350000074 1.6621523698047533
0.6 49718.16830000108 2.0086861202937256
0.7 49652.5229000016 2.361885707222824
0.7999999999999999 49588.71850000217 2.691749108500211
0.8999999999999999 49528.42910000286 2.782726496905239
0.9999999999999999 49473.07590000343 3.0951104824670255
1.0999999999999999 49423.72630000402 3.133326673969097
1.1999999999999997 49380.54680000446 3.130768511281705
1.2999999999999996 49343.074400004894 3.3061480993724457
1.3999999999999995 49311.60040000541 3.255161426972788
1.4999999999999993 49285.16490000568 3.2076918924693465
1.5999999999999992 49262.698200005885 3.1479590858446507
1.699999999999999 49243.701400006175 3.1535762370410922
1.799999999999999 49227.66260000634 2.96996665666701
1.8999999999999988 49214.111300006516 2.8919588059872243
1.9999999999999987 49202.44640000672 2.8439858113374936
2.0999999999999988 49192.390500006804 2.650264827045761
2.199999999999999 49183.711900006885 2.803124309710791
2.299999999999999 49175.99000000702 2.6661561072469038
2.399999999999999 49169.341800007096 2.5838089768134407
2.499999999999999 49163.679300007236 2.582152013117974
2.599999999999999 49158.50120000726 2.5533935024222116
2.6999999999999993 49153.64440000723 2.5227589961768078
2.7999999999999994 49149.54170000741 2.368062251861383
2.8999999999999995 49145.77130000737 2.467564626312484
2.9999999999999996 49142.25600000747 2.351142673623281
3.0999999999999996 49139.36470000747 2.3462712756120103
3.1999999999999997 49136.59200000748 2.2607713477845106
3.3 49133.819900007555 2.2531512777783496
3.4 49131.48220000749 2.2810537841623435
3.5 49129.249100007495 2.1986252848144123
3.6 49127.1970000076 2.1808409082171645
3.7 49125.25680000768 2.0833180203400605
3.8000000000000003 49123.602200007685 2.0968958324213585
3.9000000000000004 49121.85880000767 2.119574286275845
4.0 49120.44350000769 2.1097081832592264
4.1 49118.99380000773 2.1437857582479514
4.199999999999999 49117.69210000766 2.0623629483728174
4.299999999999999 49116.44120000781 2.071940031803506
4.399999999999999 49115.21770000776 2.0265200451487955
4.499999999999998 49114.074400007834 2.153235022228924
4.599999999999998 49113.088000007745 2.0780987691620716
4.6999999999999975 49111.98830000774 2.060883390743133
4.799999999999997 49111.13170000783 2.039304752549736
4.899999999999997 49110.21430000793 2.016365850024775
4.9999999999999964 49109.43010000778 2.0793286410513834
5.099999999999996 49108.61650000781 2.0349394901647955
5.199999999999996 49107.849000007845 1.9844740202484303
5.299999999999995 49107.153300007856 2.064153540738137
5.399999999999995 49106.40750000785 2.0370034690775536
5.499999999999995 49105.857600007854 2.0531384798689754
5.599999999999994 49105.05090000794 2.05694195350758
5.699999999999994 49104.45690000789 2.056463330898994
5.799999999999994 49103.915900007836 1.995650222288897
5.899999999999993 49103.32110000788 1.9915700191185168
5.999999999999993 49102.803900007886 2.008344651235983
6.0999999999999925 49102.30220000793 1.9873008137761512
6.199999999999992 49101.770300007964 2.0029077735779333
6.299999999999992 49101.25760000795 2.0049643692676735
6.3999999999999915 49100.897700007925 1.9739100868425512
6.499999999999991 49100.393200007966 2.0139786170117326
6.599999999999991 49100.016900007955 1.886728420853376
6.69999999999999 49099.54600000798 2.031504617499062
6.79999999999999 49099.05270000801 2.038884439998362
6.89999999999999 49098.79860000793 1.9972197993311644
6.999999999999989 49098.44470000794 1.9582918109271301
7.099999999999989 49097.92210000798 1.9338048482497137
7.199999999999989 49097.65270000799 1.9697747898278286
7.299999999999988 49097.35780000799 2.092873450352871
7.399999999999988 49096.99680000791 2.1082254087923333
7.499999999999988 49096.70370000792 1.9462384627991514
7.599999999999987 49096.422800008004 2.0538399203262405
7.699999999999987 49095.96960000801 2.025492152138794
7.7999999999999865 49095.760200008044 2.011447707945221
7.899999999999986 49095.405900008016 2.0322167933104134
7.999999999999986 49095.30460000795 2.008958624431608
