# Rounds: 10000, repetitions: 1000
# Good arm ~ N(5.0,1.0), 13 bad arm(s) ~ N(0.5,1.0)
# Observation noise range from 0.5 to 8.0 with step size 0.1

# Observation noise | mean | standard deviation

0.5 49944.37051656673 96.7487424042701
0.6 49939.04434352588 96.47329748880259
0.7 49940.599157374025 102.38002506063462
0.7999999999999999 49938.99212752289 101.93483853687415
0.8999999999999999 49938.162745522706 100.68657650174302
0.9999999999999999 49932.55166641872 98.75248021098936
1.0999999999999999 49928.43175611299 97.95835459972199
1.1999999999999997 49919.49835492118 101.32801915968001
1.2999999999999996 49903.776093856526 104.13153673467038
1.3999999999999995 49898.84108689536 100.27441370017125
1.4999999999999993 49886.88241511494 98.72762691921288
1.5999999999999992 49875.823539646946 91.88927525904663
1.699999999999999 49866.29483967829 97.65706894705593
1.799999999999999 49852.37098492207 102.56448477862963
1.8999999999999988 49839.23742468362 100.74656307657774
1.9999999999999987 49822.147201263695 99.42480235924997
2.0999999999999988 49809.33166083061 98.22196968725422
2.199999999999999 49793.610262227485 101.13146959494547
2.299999999999999 49782.465765259105 104.2731824155258
2.399999999999999 49764.95961705356 101.64207064176898
2.499999999999999 49752.033990149306 102.31707049635567
2.599999999999999 49731.05662959695 103.68698569614615
2.6999999999999993 49719.25225411618 108.19846381560377
2.7999999999999994 49701.33129246366 99.11427711245402
2.8999999999999995 49680.591838476365 102.076825701166
2.9999999999999996 49667.03857621405 104.91891694437422
3.0999999999999996 49644.881162181046 105.80923734023769
3.1999999999999997 49631.16228536942 104.42332150379757
3.3 49607.819827242754 97.6045296662915
3.4 49591.1285836656 102.46448688928031
3.5 49564.46800025363 104.35009497211828
3.6 49546.25545924886 104.43458412179793
3.7 49526.29513789102 99.20512791512307
3.8000000000000003 49500.499605505676 101.40813063897292
3.9000000000000004 49481.2006948293 103.13958790676581
4.0 49461.806850846064 107.7703350261176
4.1 49434.18116517776 104.46830574050963
4.199999999999999 49420.360356481164 101.86662041862148
4.299999999999999 49385.68554654402 103.67188168755581
4.399999999999999 49370.28054061893 103.33743236471345
4.499999999999998 49346.05859442849 108.16116857975778
4.599999999999998 49321.0659332275 104.57693973127698
4.6999999999999975 49298.4308837454 103.28633772024682
4.799999999999997 49265.19257358178 107.82036178585717
4.899999999999997 49241.99357728746 109.87765949576699
4.9999999999999964 49219.438946841015 108.77340975484994
5.099999999999996 49188.832807171544 103.80885776247646
5.199999999999996 49167.69814620138 109.28089751429063
5.299999999999995 49144.55198901321 104.64290900245973
5.399999999999995 49113.19683073235 103.68376632383217
5.499999999999995 49085.30205302591 107.36412056648268
5.599999999999994 49058.72681768788 102.8408154322551
5.699999999999994 49028.3453379062 103.58787074992938
5.799999999999994 49004.76309939361 107.83249435568173
5.899999999999993 48973.2891910365 101.47318462518157
5.999999999999993 48954.876815047195 106.37882577601619
6.0999999999999925 48915.81007736081 106.85987638567761
6.199999999999992 48892.0706592552 104.69507512102021
6.299999999999992 48859.762486049025 103.00045822167607
6.3999999999999915 48834.042982751234 105.44971118327274
6.499999999999991 48795.35585818385 107.31295151770426
6.599999999999991 48777.637927159405 110.27262928304621
6.69999999999999 48741.23640322272 110.12637864193995
6.79999999999999 48703.19345447981 109.52144215974143
6.89999999999999 48679.15733975069 108.50762863534415
6.999999999999989 48647.46350233037 108.41701130349828
7.099999999999989 48614.4988284024 106.8623921754165
7.199999999999989 48592.77947724121 111.08928778290286
7.299999999999988 48559.927584282326 108.31304775184584
7.399999999999988 48525.837959767785 110.8089135476209
7.499999999999988 48485.92171536137 107.84861509349754
7.599999999999987 48451.25381323356 112.32229806328687
7.699999999999987 48421.27927338195 109.28539954453389
7.7999999999999865 48388.24219219928 112.42466872191869
7.899999999999986 48358.60664599168 113.87508775785135
7.999999999999986 48314.257833312615 114.89778429338186
