# Rounds: 10000, repetitions: 1000
# Good arm ~ N(5.0,2.0), 13 bad arm(s) ~ N(4.5,2.0)
# Observation noise range from 0.5 to 8.0 with step size 0.1

# Observation noise | mean | standard deviation

0.5 48251.3125824912 2190.9109431564393
0.6 48428.21658178999 2104.6680162413104
0.7 48767.58409249096 1867.849830842848
0.7999999999999999 48892.13809486285 1741.5936333378818
0.8999999999999999 49032.41360102812 1558.6572621402981
0.9999999999999999 49177.87841579566 1377.3928244738293
1.0999999999999999 49269.74874752553 1207.839142745597
1.1999999999999997 49344.589085268795 1014.4562731638127
1.2999999999999996 49398.812205090246 772.800918787436
1.3999999999999995 49382.38011424755 691.5585489712381
1.4999999999999993 49340.50209048058 731.4868907380908
1.5999999999999992 49326.01951577519 669.9838772315194
1.699999999999999 49325.73215289848 483.0995340642401
1.799999999999999 49286.01753794527 457.92988766698465
1.8999999999999988 49239.7717647264 489.9454258449061
1.9999999999999987 49224.41475529115 289.5081904106424
2.0999999999999988 49162.39184801866 310.6565247052805
2.199999999999999 49094.12857182124 392.5766468107935
2.299999999999999 49056.79481700144 298.65891630311773
2.399999999999999 48990.48275747144 295.76395789359
2.499999999999999 48947.87781989057 284.68746567954526
2.599999999999999 48893.6917660896 291.1373024535533
2.6999999999999993 48818.32091143204 308.6479700402925
2.7999999999999994 48760.507115946886 298.8061038310025
2.8999999999999995 48702.0680218585 306.3938141392015
2.9999999999999996 48648.63788676126 300.2315595471018
3.0999999999999996 48600.2906172052 320.57319648556654
3.1999999999999997 48551.31925725057 313.7847977181714
3.3 48476.30788691016 298.23199387145024
3.4 48415.846347926636 316.8484512751101
3.5 48340.28021135065 313.7135084302796
3.6 48300.00680843779 320.86587043497184
3.7 48239.43022016907 323.71291878813355
3.8000000000000003 48163.188113870725 333.8315516308424
3.9000000000000004 48112.195414605994 324.0610104812673
4.0 48058.56610750282 330.38358045890146
4.1 47993.07497868619 336.32480323335716
4.199999999999999 47943.88841338359 333.40312196857013
4.299999999999999 47898.54880677995 330.4655792062932
4.399999999999999 47834.69706161533 335.63874825320624
4.499999999999998 47780.938969761 344.89580777377535
4.599999999999998 47732.60968985934 340.29172319679463
4.6999999999999975 47668.46520457937 337.83992203039134
4.799999999999997 47627.17808249865 334.92114981173563
4.899999999999997 47576.01193319933 342.9075998325944
4.9999999999999964 47543.2199546548 345.677298284998
5.099999999999996 47466.77692198069 347.05859074083946
5.199999999999996 47414.94125322251 354.27344935895576
5.299999999999995 47386.46644293166 347.4506964989954
5.399999999999995 47319.91983118962 348.05881489591235
5.499999999999995 47287.99966543855 344.7573722339751
5.599999999999994 47248.63121503286 342.8138354507997
5.699999999999994 47225.52048490954 352.42340224366046
5.799999999999994 47192.28787963249 332.06453523926336
5.899999999999993 47117.96540119241 337.6773262906038
5.999999999999993 47093.376354524284 334.59462039526994
6.0999999999999925 47048.182807168014 337.5126510711602
6.199999999999992 47004.111104210424 336.22942705677815
6.299999999999992 46973.10250343349 340.20607850579944
6.3999999999999915 46933.45216030405 347.6102702184433
6.499999999999991 46919.90890309755 342.6988266180513
6.599999999999991 46889.20242478397 327.3674989089748
6.69999999999999 46849.404680755695 330.87790172160544
6.79999999999999 46815.010221565804 326.2136563015031
6.89999999999999 46794.61451293194 323.3736447735272
6.999999999999989 46743.054959753266 316.07451209932043
7.099999999999989 46717.0575448615 329.686613174219
7.199999999999989 46710.90180137233 327.08798508306955
7.299999999999988 46657.08607293752 312.20782195228674
7.399999999999988 46642.41056735424 312.0943410141588
7.499999999999988 46627.33389899033 311.3546817392191
7.599999999999987 46596.92757574303 322.7674519373281
7.699999999999987 46583.180758222545 302.38170569728163
7.7999999999999865 46561.41625898613 299.20956488615246
7.899999999999986 46527.736428847005 299.92343408574055
7.999999999999986 46512.04354356072 302.7720598747774
