# Rounds: 10000, repetitions: 1000
# Good arm ~ N(5.0,0.0), 13 bad arm(s) ~ N(3.0,0.0)
# Observation noise range from 0.5 to 8.0 with step size 0.1

# Observation noise | mean | standard deviation

0.5 49973.19399999998 5.875447632724292
0.6 49957.11599999999 4.592127135830578
0.7 49950.03999999994 3.4120436752835026
0.7999999999999999 49938.98400000001 4.258859223064515
0.8999999999999999 49924.78800000001 3.3295858814787
0.9999999999999999 49911.57599999995 3.9754280307946988
1.0999999999999999 49895.312 4.179009466383121
1.1999999999999997 49879.36999999996 4.562446264441482
1.2999999999999996 49862.03400000002 4.937937547927033
1.3999999999999995 49843.702000000034 5.314455704908987
1.4999999999999993 49824.588000000076 5.4980436961235855
1.5999999999999992 49804.68400000001 5.79082702881697
1.699999999999999 49784.34599999996 6.26542413085809
1.799999999999999 49762.668000000005 6.5449684959220695
1.8999999999999988 49740.17400000003 6.443232049153548
1.9999999999999987 49717.54200000001 7.121302475597339
2.0999999999999988 49693.757999999936 7.404070249278799
2.199999999999999 49669.17600000001 7.788047102944179
2.299999999999999 49644.02999999999 7.936629642996435
2.399999999999999 49618.41800000003 8.518793684897393
2.499999999999999 49592.386 8.702570812049643
2.599999999999999 49565.09800000004 8.875199443683744
2.6999999999999993 49537.73399999999 9.782481328422785
2.7999999999999994 49509.43799999996 9.993198688108743
2.8999999999999995 49481.63999999999 10.652317676067964
2.9999999999999996 49451.62399999997 10.990696948757181
3.0999999999999996 49422.36599999998 10.888921554158355
3.1999999999999997 49391.259999999966 11.27419653489801
3.3 49361.49800000002 11.9864787019238
3.4 49329.674 11.899046655565048
3.5 49298.251999999986 11.739604521205699
3.6 49266.18799999999 12.768386260122464
3.7 49232.91999999997 12.711064910980914
3.8000000000000003 49199.52799999996 13.529828981634449
3.9000000000000004 49166.829999999965 13.508129758392357
4.0 49133.07999999999 14.41976177090054
4.1 49098.288 14.650176916463495
4.199999999999999 49063.423999999985 15.065696107355796
4.299999999999999 49027.71000000001 15.114242962859342
4.399999999999999 48992.536 15.100355119159538
4.499999999999998 48955.51999999999 16.14032558872672
4.599999999999998 48920.157999999996 16.20486450525396
4.6999999999999975 48882.55200000004 16.318136461544064
4.799999999999997 48846.74799999998 16.78148128486034
4.899999999999997 48808.00600000005 17.423419283812862
4.9999999999999964 48771.276000000034 17.106971458223608
5.099999999999996 48733.24799999997 17.824932656933782
5.199999999999996 48694.436000000045 17.68238022921595
5.299999999999995 48655.12599999999 18.651112245332243
5.399999999999995 48616.992000000035 19.591011810106757
5.499999999999995 48577.24800000001 19.284771152346995
5.599999999999994 48537.28000000002 20.230543118633058
5.699999999999994 48498.23599999997 19.63144665320667
5.799999999999994 48458.68400000001 20.17570824539248
5.899999999999993 48415.71399999998 21.74136359318089
5.999999999999993 48375.87199999998 21.15691922826277
6.0999999999999925 48335.23800000002 21.65160844251869
6.199999999999992 48294.338 22.83942633682827
6.299999999999992 48251.782000000065 22.850878290311865
6.3999999999999915 48210.42600000003 22.580886174382496
6.499999999999991 48168.056000000055 23.03995884769967
6.599999999999991 48125.51799999993 23.98213540990081
6.69999999999999 48081.61800000002 23.853365780515446
6.79999999999999 48039.479999999974 24.022045263854295
6.89999999999999 47996.31999999998 24.037708114780994
6.999999999999989 47955.24000000007 24.782020671215516
7.099999999999989 47910.36200000001 25.82897775933243
7.199999999999989 47867.23999999997 24.804468582528827
7.299999999999988 47822.79400000002 26.507512373140845
7.399999999999988 47778.391999999985 25.370573544995
7.499999999999988 47734.89000000008 25.494192551517543
7.599999999999987 47688.95800000003 26.292004592756015
7.699999999999987 47645.43000000005 27.26159009108389
7.7999999999999865 47600.89199999999 28.51935640384756
7.899999999999986 47555.716000000015 27.730566678817087
7.999999999999986 47509.63000000004 27.931259464178545
