# Rounds: 1000, repetitions: 1000
# Good arm ~ N(5.0,0.0), 19 bad arm(s) ~ N(1.0,0.0)
# Observation noise range from 0.5 to 8.0 with step size 0.1

# Observation noise | mean | standard deviation

0.5 4928.464000000007 2.4212737487873084
0.6 4928.356 2.35771559413406
0.7 4927.996 3.256161326867351
0.7999999999999999 4927.764000000001 3.9970339353425834
0.8999999999999999 4927.424000000002 4.345008987689531
0.9999999999999999 4926.276000000001 4.91324373138195
1.0999999999999999 4923.132000000006 6.3162069686221
1.1999999999999997 4915.068000000009 8.156341208035837
1.2999999999999996 4902.119999999993 9.328698978133305
1.3999999999999995 4886.080000000005 9.429024684796774
1.4999999999999993 4870.308 8.500905916512757
1.5999999999999992 4857.024000000004 7.413932181399375
1.699999999999999 4847.268000000008 7.469402115830134
1.799999999999999 4836.155999999995 8.353049589068421
1.8999999999999988 4824.128 9.585170394494352
1.9999999999999987 4810.244000000011 10.088123424811648
2.0999999999999988 4795.407999999997 10.495317417195494
2.199999999999999 4780.26 10.484002781109698
2.299999999999999 4764.787999999996 10.698294701003075
2.399999999999999 4749.587999999998 10.900875427463735
2.499999999999999 4734.216000000008 11.423302317449085
2.599999999999999 4717.611999999994 12.004397592614156
2.6999999999999993 4702.768000000003 12.291185835762581
2.7999999999999994 4685.256000000005 13.43260581193771
2.8999999999999995 4667.7519999999995 13.134039706008162
2.9999999999999996 4649.992000000007 13.812701644744518
3.0999999999999996 4632.612 13.802897376129968
3.1999999999999997 4615.000000000003 14.351514413676567
3.3 4597.484000000003 15.22884308349323
3.4 4577.351999999995 15.726519621945094
3.5 4559.4280000000035 16.22689520913142
3.6 4540.811999999998 17.16797586774267
3.7 4520.928000000008 16.789183800670354
3.8000000000000003 4501.59200000001 17.87425592926949
3.9000000000000004 4481.547999999996 18.280970704256614
4.0 4461.432000000001 18.266116911566844
4.1 4441.372000000001 19.2455711270933
4.199999999999999 4420.063999999996 20.103931756551365
4.299999999999999 4400.107999999997 19.839302758260704
4.399999999999999 4378.080000000004 21.145986681939277
4.499999999999998 4358.232000000006 20.595007412728172
4.599999999999998 4335.872000000003 21.818241259360402
4.6999999999999975 4313.116000000001 22.696732929778296
4.799999999999997 4291.628000000006 23.10834506431855
4.899999999999997 4268.507999999998 23.886240568337424
4.9999999999999964 4248.383999999999 25.100649126797187
5.099999999999996 4226.419999999999 24.751327807376885
5.199999999999996 4201.396000000002 25.086261269956147
5.299999999999995 4179.2080000000005 26.22068382518398
5.399999999999995 4156.824000000006 26.40473885942137
5.499999999999995 4134.111999999997 26.966101435443502
5.599999999999994 4107.828000000001 28.621208737395957
5.699999999999994 4085.127999999998 28.349026143472393
5.799999999999994 4061.4639999999986 30.00555010388977
5.899999999999993 4039.348000000001 29.254174107342376
5.999999999999993 4014.2119999999995 29.31836664315753
6.0999999999999925 3990.423999999999 30.33328752925268
6.199999999999992 3966.9440000000004 30.92638526089502
6.299999999999992 3940.272000000001 31.62109912558252
6.3999999999999915 3915.9159999999993 32.7077780159818
6.499999999999991 3890.715999999998 34.56463594568962
6.599999999999991 3866.3 34.58557737210933
6.69999999999999 3841.3000000000006 35.635205455670786
6.79999999999999 3816.495999999999 36.24101813408926
6.89999999999999 3791.4760000000024 36.99976224797125
6.999999999999989 3766.1800000000003 37.5331365107731
7.099999999999989 3739.455999999999 37.78427868460259
7.199999999999989 3713.672000000001 38.90508992435328
7.299999999999988 3688.6119999999983 39.66740423772343
7.399999999999988 3665.804000000002 39.23851736808158
7.499999999999988 3637.540000000001 41.429274490205636
7.599999999999987 3611.8880000000013 41.587076609698656
7.699999999999987 3583.6319999999955 42.98139104282198
7.7999999999999865 3561.804000000001 44.61730929009825
7.899999999999986 3533.8279999999954 45.02138759902171
7.999999999999986 3506.460000000002 45.45219799198168
