# Rounds: 1000, repetitions: 1000
# Good arm ~ N(5.0,0.0), 19 bad arm(s) ~ N(3.0,0.0)
# Observation noise range from 0.5 to 8.0 with step size 0.1

# Observation noise | mean | standard deviation

0.5 4963.292000000003 6.176802480967677
0.6 4958.0560000000105 6.442233026394363
0.7 4944.928000000001 5.8052145969393205
0.7999999999999999 4930.5639999999985 4.777523283954688
0.8999999999999999 4920.246 5.0569810220186495
0.9999999999999999 4907.679999999999 5.688053617359319
1.0999999999999999 4892.883999999996 5.642905845961474
1.1999999999999997 4878.316 5.716364300918945
1.2999999999999996 4862.978 6.187228603971056
1.3999999999999995 4847.130000000007 6.5150246005326435
1.4999999999999993 4830.221999999996 7.0290912729970545
1.5999999999999992 4813.391999999997 7.243949945355187
1.699999999999999 4796.2279999999955 7.9233070617510934
1.799999999999999 4777.933999999999 7.765561663392336
1.8999999999999988 4759.139999999999 8.54759974855288
1.9999999999999987 4741.275999999994 8.90635431291321
2.0999999999999988 4721.898000000005 9.115299484091807
2.199999999999999 4702.787999999997 10.186010544409097
2.299999999999999 4683.036 9.935462617181884
2.399999999999999 4663.069999999997 11.18875722715831
2.499999999999999 4643.205999999997 11.023751044317292
2.599999999999999 4623.412000000006 11.373988905552137
2.6999999999999993 4602.6979999999985 11.694509718562719
2.7999999999999994 4582.750000000011 12.895727967036258
2.8999999999999995 4561.471999999989 13.094910946344434
2.9999999999999996 4540.848000000005 13.105901749237155
3.0999999999999996 4520.376000000001 14.28168724593104
3.1999999999999997 4498.667999999999 14.698905871997223
3.3 4477.734000000004 15.134804468717212
3.4 4456.255999999998 15.919418704585004
3.5 4436.492000000004 15.829608728977284
3.6 4415.5160000000005 16.487740584737185
3.7 4393.853999999991 17.67696691062012
3.8000000000000003 4372.224000000003 17.52349556729184
3.9000000000000004 4352.039999999992 17.292583191456124
4.0 4331.229999999996 18.393733428247668
4.1 4310.589999999997 18.814831859410717
4.199999999999999 4288.162000000002 19.278210638059896
4.299999999999999 4268.564000000001 19.75996863257535
4.399999999999999 4248.132000000001 20.18370525839994
4.499999999999998 4227.4079999999985 21.171721181278077
4.599999999999998 4207.318000000002 22.479150077086754
4.6999999999999975 4184.881999999999 22.058936344997978
4.799999999999997 4165.613999999994 22.787063309129085
4.899999999999997 4147.071999999991 24.082499512774465
4.9999999999999964 4126.962000000003 24.600808030545597
5.099999999999996 4106.999999999996 24.83482975115329
5.199999999999996 4087.822000000005 25.45600762736224
5.299999999999995 4069.238000000004 25.958836977361248
5.399999999999995 4049.2160000000054 26.33581058025212
5.499999999999995 4029.1859999999974 26.532873900077167
5.599999999999994 4012.8980000000006 27.757739246705352
5.699999999999994 3992.5919999999996 28.11789736363927
5.799999999999994 3973.97 28.44799445283249
5.899999999999993 3956.463999999996 29.356404795248732
5.999999999999993 3938.7919999999976 30.098482597211667
6.0999999999999925 3921.8459999999964 31.475180237307175
6.199999999999992 3902.737999999998 31.04969306514059
6.299999999999992 3887.602000000001 31.114139642382604
6.3999999999999915 3869.248000000003 32.551345380584316
6.499999999999991 3854.974000000003 30.97086564044539
6.599999999999991 3836.475999999995 32.178142532733
6.69999999999999 3820.57 33.90186479290538
6.79999999999999 3803.4520000000025 32.986600488862294
6.89999999999999 3790.5159999999973 34.98728131555601
6.999999999999989 3774.87 33.17625300970204
7.099999999999989 3759.7380000000003 34.62036865670158
7.199999999999989 3743.371999999999 37.74957809892246
7.299999999999988 3731.3219999999988 35.469062158032486
7.399999999999988 3716.390000000001 35.31774685966311
7.499999999999988 3702.7739999999985 35.87701331053193
7.599999999999987 3690.145999999999 36.86529172180432
7.699999999999987 3674.5500000000015 37.34504186839468
7.7999999999999865 3661.6920000000036 36.64030086731887
7.899999999999986 3648.785999999997 38.25417082601037
7.999999999999986 3634.278000000004 38.038528436910404
