# Rounds: 1000, repetitions: 1000
# Good arm ~ N(5.0,1.0), 19 bad arm(s) ~ N(1.0,1.0)
# Observation noise range from 0.5 to 8.0 with step size 0.1

# Observation noise | mean | standard deviation

0.5 4924.28351507961 32.13044039632114
0.6 4924.378616708667 33.186386908214466
0.7 4923.645983030042 31.816697740209314
0.7999999999999999 4921.454817300452 32.26318999758925
0.8999999999999999 4920.03055579019 32.82095087268752
0.9999999999999999 4914.518655798045 33.669964664721206
1.0999999999999999 4909.521806441044 34.744068741093116
1.1999999999999997 4901.866151160924 33.38395630872624
1.2999999999999996 4889.817385868626 34.18902126006558
1.3999999999999995 4881.1452375783465 33.327266074638224
1.4999999999999993 4871.474740241098 34.24746141237017
1.5999999999999992 4856.933458421509 35.076479617289436
1.699999999999999 4843.887238028291 34.05890756926704
1.799999999999999 4831.371420964564 34.56771331150773
1.8999999999999988 4816.845539310939 36.19868439230907
1.9999999999999987 4804.211428608751 36.500125446862185
2.0999999999999988 4789.671881149248 35.73129889051075
2.199999999999999 4776.702565508493 37.193418658113536
2.299999999999999 4762.969970979152 36.70003826874294
2.399999999999999 4745.430037591673 37.20748085993694
2.499999999999999 4730.736931737998 39.26348308015589
2.599999999999999 4714.051980041599 39.873452408096014
2.6999999999999993 4697.827470515597 38.923545858999404
2.7999999999999994 4681.479330295517 39.15743179587394
2.8999999999999995 4664.187498246238 40.79671683207011
2.9999999999999996 4646.37352623714 40.73650647688338
3.0999999999999996 4629.106686763372 40.820069191958055
3.1999999999999997 4612.059232040669 41.60665440456853
3.3 4592.262580496286 41.96528206443079
3.4 4575.040080932474 41.9641561799272
3.5 4555.608989835815 44.73364852861823
3.6 4534.711080274304 43.27544189674409
3.7 4516.957661270138 41.87932370673729
3.8000000000000003 4496.671003839464 45.03889722962779
3.9000000000000004 4478.077270820576 44.7406305946716
4.0 4455.650414200683 45.10263120540365
4.1 4439.200532652037 44.27659360958873
4.199999999999999 4414.832383542934 48.77688359156635
4.299999999999999 4394.516224368495 47.94035981043749
4.399999999999999 4371.701073378937 45.834632173915246
4.499999999999998 4350.212903023448 48.069392767197996
4.599999999999998 4332.30504810268 48.518443884701746
4.6999999999999975 4311.263106881269 50.710085020406915
4.799999999999997 4287.949527472594 52.13056919504561
4.899999999999997 4266.127682665093 52.16069017937692
4.9999999999999964 4241.161872059609 52.187632952129974
5.099999999999996 4221.429648614784 53.51819460705077
5.199999999999996 4198.325404588539 53.560403331886874
5.299999999999995 4173.519794313876 53.99927968108279
5.399999999999995 4152.782906097271 56.23135515900286
5.499999999999995 4127.20663685179 55.5145707801835
5.599999999999994 4101.76182026852 55.852118982990525
5.699999999999994 4081.0552229805376 57.67709167101619
5.799999999999994 4058.7211460466015 58.650617662745525
5.899999999999993 4032.5639040537053 58.892795185747815
5.999999999999993 4009.8888307917855 60.7406666473176
6.0999999999999925 3983.0568652308298 61.388914457088624
6.199999999999992 3962.103583883664 59.38761513965336
6.299999999999992 3938.4869519378367 60.57734738038559
6.3999999999999915 3914.0108473717623 62.22399920291486
6.499999999999991 3885.3144893150898 64.10834760203923
6.599999999999991 3864.4417722439066 68.71209130464645
6.69999999999999 3835.4371104936317 65.24224944219003
6.79999999999999 3812.2053167503077 65.49667199696385
6.89999999999999 3785.7621480903417 66.83780803305407
6.999999999999989 3760.3236897673255 68.24388894170836
7.099999999999989 3731.2705293307235 71.83881143235372
7.199999999999989 3709.1661512413966 72.19047585667909
7.299999999999988 3685.5476993266857 71.90791514148383
7.399999999999988 3659.8132818476042 73.37726681265225
7.499999999999988 3632.098923742376 72.9695330230142
7.599999999999987 3607.3226779536176 74.66774175151221
7.699999999999987 3581.5528241012303 73.75568508892268
7.7999999999999865 3557.7430927989317 73.85492815611282
7.899999999999986 3532.840232697164 77.34244077807433
7.999999999999986 3504.7173946135363 79.38236876475924
