# Rounds: 1000, repetitions: 1000
# Good arm ~ N(5.0,0.0), 19 bad arm(s) ~ N(4.0,0.0)
# Observation noise range from 0.5 to 8.0 with step size 0.1

# Observation noise | mean | standard deviation

0.5 4952.428000000003 3.6155065880022494
0.6 4936.921999999999 3.244139399045707
0.7 4919.497999999998 3.3548846852390146
0.7999999999999999 4900.942999999993 3.702358499451229
0.8999999999999999 4881.340000000005 3.982494226017156
0.9999999999999999 4860.894000000002 4.501224836089068
1.0999999999999999 4839.538000000003 4.9611661098142115
1.1999999999999997 4817.878000000003 5.35666032242195
1.2999999999999996 4796.030999999999 5.623670035187463
1.3999999999999995 4773.120999999994 5.970595197047509
1.4999999999999993 4750.0560000000005 6.590166484565754
1.5999999999999992 4727.5129999999945 6.6101077543807145
1.699999999999999 4704.471000000006 7.375605640119208
1.799999999999999 4681.2190000000055 7.852050285988626
1.8999999999999988 4658.822999999997 8.16764233921759
1.9999999999999987 4636.738 8.175952678569155
2.0999999999999988 4613.759000000005 8.945778107350211
2.199999999999999 4592.141999999994 9.337935158964937
2.299999999999999 4571.274999999996 9.693159048129425
2.399999999999999 4550.065999999997 9.8249770571831
2.499999999999999 4530.698999999997 10.051538809179052
2.599999999999999 4511.429999999991 10.86826661520678
2.6999999999999993 4492.124000000008 11.096565133308502
2.7999999999999994 4473.301000000005 11.513859820580036
2.8999999999999995 4456.211999999999 11.91431941014709
2.9999999999999996 4439.413999999996 12.431538406293381
3.0999999999999996 4423.303000000003 12.618495053587733
3.1999999999999997 4407.697999999993 12.510927995929052
3.3 4393.2979999999925 12.537399346849524
3.4 4378.292000000008 12.98095686924661
3.5 4365.725000000004 13.35881105610953
3.6 4352.448999999999 12.863470288684452
3.7 4340.550999999992 13.869237713542715
3.8000000000000003 4329.048999999995 14.087691864250273
3.9000000000000004 4318.409999999994 13.664721900742292
4.0 4308.218000000001 14.332407121411697
4.1 4297.604999999997 14.46230040944846
4.199999999999999 4289.52 14.323783395833974
4.299999999999999 4280.8110000000015 14.942843356187709
4.399999999999999 4272.837999999997 14.740048338625819
4.499999999999998 4264.597999999996 14.917470527100994
4.599999999999998 4258.287000000002 14.46810135978308
4.6999999999999975 4250.031000000002 14.713821241796294
4.799999999999997 4244.244999999999 14.193182216170651
4.899999999999997 4239.049000000004 15.17764672009335
4.9999999999999964 4231.272999999999 14.343437705278511
5.099999999999996 4225.592999999994 14.569338235370104
5.199999999999996 4220.353 15.297267644824577
5.299999999999995 4215.112999999996 15.398810160345322
5.399999999999995 4209.520000000001 15.706249911620752
5.499999999999995 4205.585000000008 14.868013748743731
5.599999999999994 4201.068999999998 14.849132491015586
5.699999999999994 4197.662000000002 15.909710081421187
5.799999999999994 4192.609000000001 16.161538117218754
5.899999999999993 4188.080000000009 15.190139576065166
5.999999999999993 4184.813 16.089092264322698
6.0999999999999925 4180.722 15.72252886510037
6.199999999999992 4178.153999999997 14.69122582074468
6.299999999999992 4175.3020000000015 15.168879025521024
6.3999999999999915 4171.547000000005 15.015433868332082
6.499999999999991 4169.266 15.445186881284279
6.599999999999991 4165.236000000001 15.158696846697946
6.69999999999999 4162.853000000002 16.083347445885305
6.79999999999999 4159.541000000002 15.254869059747104
6.89999999999999 4158.026000000003 15.105412854255192
6.999999999999989 4154.888999999999 15.878375288479628
7.099999999999989 4152.713000000007 15.175537154510405
7.199999999999989 4149.785999999992 15.739311609150183
7.299999999999988 4148.255999999996 15.373119292999563
7.399999999999988 4145.323000000009 15.513843828991932
7.499999999999988 4143.626 15.011111133339053
7.599999999999987 4141.322000000004 15.314922881388098
7.699999999999987 4138.755999999995 15.088675625519057
7.7999999999999865 4137.4619999999995 15.467443156442945
7.899999999999986 4134.819999999992 14.82185168213752
7.999999999999986 4134.477 15.15173409369524
