# Rounds: 500, repetitions: 1000
# Good arm ~ N(5.0,0.0), 16 bad arm(s) ~ N(4.0,0.0)
# Observation noise range from 0.5 to 8.0 with step size 0.1

# Observation noise | mean | standard deviation

0.5 2464.903 3.9763554170122117
0.6 2453.976000000001 3.6650862004674547
0.7 2442.0759999999996 3.4730802303267
0.7999999999999999 2429.227999999999 4.000252244298866
0.8999999999999999 2416.277000000002 4.248802575234942
0.9999999999999999 2402.3769999999986 4.360261790636355
1.0999999999999999 2388.3169999999996 4.735497432787394
1.1999999999999997 2374.535000000001 5.2082531525359705
1.2999999999999996 2360.2749999999987 5.258424291175622
1.3999999999999995 2346.3770000000004 5.916745632429924
1.4999999999999993 2332.3709999999974 5.998778571037959
1.5999999999999992 2318.6560000000045 6.495063498523301
1.699999999999999 2305.7010000000055 7.016611135856959
1.799999999999999 2292.203 7.176440084909278
1.8999999999999988 2279.6810000000014 7.9794053606713025
1.9999999999999987 2267.532999999999 7.809731295179321
2.0999999999999988 2255.6379999999995 8.710730901183476
2.199999999999999 2244.534 8.682985560176773
2.299999999999999 2234.292999999996 9.071352734870391
2.399999999999999 2223.6439999999993 9.881746450547766
2.499999999999999 2214.5630000000006 9.77187395132176
2.599999999999999 2205.3810000000003 9.792023423313593
2.6999999999999993 2197.221 9.840172152355278
2.7999999999999994 2189.4969999999994 10.227443062251306
2.8999999999999995 2181.309999999999 10.627174452169147
2.9999999999999996 2174.6599999999994 10.995694853228036
3.0999999999999996 2167.4140000000057 11.749666321162428
3.1999999999999997 2161.3069999999993 10.667640299032833
3.3 2156.0099999999998 11.574708371007613
3.4 2150.769000000003 11.397699177752813
3.5 2145.260000000002 11.494630334487658
3.6 2140.7409999999945 11.3536260209601
3.7 2136.165000000004 11.713623862152307
3.8000000000000003 2131.833 12.021381976487758
3.9000000000000004 2128.437999999999 11.548919150012868
4.0 2124.4489999999964 11.559629060831666
4.1 2120.5900000000033 12.191740586911243
4.199999999999999 2117.617000000004 12.206609370022099
4.299999999999999 2114.674999999999 12.389143064226255
4.399999999999999 2111.1790000000033 12.498686978085964
4.499999999999998 2108.076000000002 12.073607414356177
4.599999999999998 2106.091999999997 11.956943777759612
4.6999999999999975 2103.6970000000038 12.31921076830625
4.799999999999997 2100.794 12.429644406018262
4.899999999999997 2098.446 12.122872928808864
4.9999999999999964 2096.195999999999 12.152170968977517
5.099999999999996 2094.489000000002 12.416684462973711
5.199999999999996 2092.7999999999997 12.459182606865973
5.299999999999995 2089.678000000001 12.157307107913148
5.399999999999995 2087.9049999999993 12.34546011234029
5.499999999999995 2086.4370000000013 12.054847587188732
5.599999999999994 2085.3309999999983 11.919795322090158
5.699999999999994 2083.494000000005 11.7661551241859
5.799999999999994 2082.2039999999965 12.278483014816803
5.899999999999993 2080.6330000000007 12.185762339870404
5.999999999999993 2079.258000000001 11.698131572276061
6.0999999999999925 2077.4120000000003 12.236011440660581
6.199999999999992 2076.1000000000054 12.014505747151984
6.299999999999992 2074.3629999999957 11.700176286070466
6.3999999999999915 2073.618000000001 12.066220189838637
6.499999999999991 2072.4970000000053 12.057253765612167
6.599999999999991 2070.7620000000015 11.390482829937417
6.69999999999999 2070.374999999999 11.27135388577691
6.79999999999999 2069.2700000000023 11.972319592979321
6.89999999999999 2067.9980000000005 11.208640846669596
6.999999999999989 2067.0899999999965 11.60148673638417
7.099999999999989 2066.856999999998 11.73355134761969
7.199999999999989 2065.6549999999997 11.441804485739594
7.299999999999988 2064.4789999999975 11.314219839236394
7.399999999999988 2064.036000000004 11.453466107946788
7.499999999999988 2062.6579999999985 11.162331012545462
7.599999999999987 2061.5249999999983 11.43687794711375
7.699999999999987 2062.0109999999995 11.418110712909217
7.7999999999999865 2060.9050000000007 11.013685862429398
7.899999999999986 2060.1210000000065 11.000516822875658
7.999999999999986 2059.8389999999977 10.894942807503808
