# Rounds: 500, repetitions: 1000
# Good arm ~ N(5.0,0.0), 16 bad arm(s) ~ N(4.5,0.0)
# Observation noise range from 0.5 to 8.0 with step size 0.1

# Observation noise | mean | standard deviation

0.5 2449.675999999998 2.1181384540465245
0.6 2434.1100000000038 2.3770886711586066
0.7 2418.531499999997 2.9157776851998625
0.7999999999999999 2403.115500000002 3.0657476345189356
0.8999999999999999 2388.741000000002 3.31057077841254
0.9999999999999999 2375.243999999999 3.664818535056649
1.0999999999999999 2363.1635000000047 3.615257644738177
1.1999999999999997 2352.4210000000016 3.976691221741149
1.2999999999999996 2342.6790000000046 4.147367798937013
1.3999999999999995 2334.6559999999995 4.208012757985804
1.4999999999999993 2327.561 4.190505857213325
1.5999999999999992 2322.0560000000005 4.076331743182861
1.699999999999999 2316.688000000001 4.158238442772014
1.799999999999999 2312.821499999997 4.078114609567602
1.8999999999999988 2308.907500000002 4.184041102803588
1.9999999999999987 2305.7815000000014 4.075796838640271
2.0999999999999988 2303.2835000000023 4.072709750855628
2.199999999999999 2300.9470000000024 4.113953769260862
2.299999999999999 2299.101499999996 4.1118554333907555
2.399999999999999 2297.1760000000017 4.060173519568967
2.499999999999999 2295.414000000001 4.022036894507654
2.599999999999999 2294.117000000006 4.11512396474824
2.6999999999999993 2292.6035000000006 4.050981140192853
2.7999999999999994 2291.6355000000012 3.865142827772231
2.8999999999999995 2290.4885000000017 4.038369247131343
2.9999999999999996 2289.6920000000014 4.0990167037885845
3.0999999999999996 2288.630999999998 3.8845113500192596
3.1999999999999997 2287.9480000000012 4.047428526568155
3.3 2287.013500000001 3.945076853672338
3.4 2286.191999999998 4.070774767437676
3.5 2285.8565000000012 4.278488426210037
3.6 2285.2889999999984 4.257123688842263
3.7 2284.662999999995 4.077322105936125
3.8000000000000003 2284.2965 4.238608681342672
3.9000000000000004 2283.580000000002 4.287771563992775
4.0 2283.021499999998 4.198322720285275
4.1 2282.7335 4.231209151162436
4.199999999999999 2282.208499999997 4.405131431970367
4.299999999999999 2281.823500000001 4.4390091859054195
4.399999999999999 2281.499500000003 4.393239158104213
4.499999999999998 2281.0709999999954 4.498187712033871
4.599999999999998 2280.9829999999997 4.307175729264206
4.6999999999999975 2280.612500000001 4.564858341907424
4.799999999999997 2280.1109999999976 4.45674113467919
4.899999999999997 2279.8475000000008 4.5195043610632535
4.9999999999999964 2279.4659999999976 4.681373650891273
5.099999999999996 2279.268500000001 4.420599444583228
5.199999999999996 2278.5295 4.514394700234973
5.299999999999995 2278.7239999999993 4.704514476166082
5.399999999999995 2278.5479999999975 4.497602074931097
5.499999999999995 2278.1185000000014 4.694704250322703
5.599999999999994 2277.7844999999975 4.593245873851934
5.699999999999994 2277.462000000001 4.588203091364579
5.799999999999994 2277.232 4.680393368305913
5.899999999999993 2277.2559999999994 4.684005113565095
5.999999999999993 2276.783500000001 4.520045194304884
6.0999999999999925 2276.696000000002 4.48242971792936
6.199999999999992 2276.798500000001 4.584666500075735
6.299999999999992 2276.4699999999966 4.511868455192042
6.3999999999999915 2276.3130000000033 4.735763767171923
6.499999999999991 2275.621999999998 4.350292063878132
6.599999999999991 2275.7225 4.553677604939764
6.69999999999999 2275.501499999999 4.530979753599389
6.79999999999999 2275.4189999999976 4.688381375263741
6.89999999999999 2275.2390000000023 4.658978974527043
6.999999999999989 2275.1200000000013 4.458640990198635
7.099999999999989 2274.775999999998 4.405363915867912
7.199999999999989 2274.6534999999994 4.685311077174055
7.299999999999988 2274.4379999999956 4.395221720684167
7.399999999999988 2274.303999999999 4.631364111526248
7.499999999999988 2274.1424999999954 4.506356732550275
7.599999999999987 2274.3019999999974 4.435422073373497
7.699999999999987 2273.9655000000025 4.490292025299964
7.7999999999999865 2273.945999999998 4.405904673956956
7.899999999999986 2273.8640000000005 4.467937607718646
7.999999999999986 2273.553499999999 4.431085902154482
