# Rounds: 500, repetitions: 1000
# Good arm ~ N(5.0,1.0), 16 bad arm(s) ~ N(1.0,1.0)
# Observation noise range from 0.5 to 8.0 with step size 0.1

# Observation noise | mean | standard deviation

0.5 2438.764828924516 22.504509037755103
0.6 2438.5892421717863 22.702636107682196
0.7 2435.9226444329415 22.838733124649167
0.7999999999999999 2436.582793773156 23.686675256414873
0.8999999999999999 2432.375395472454 23.543098624493727
0.9999999999999999 2431.485391197465 23.649896337414706
1.0999999999999999 2425.948337296592 24.257468552230478
1.1999999999999997 2420.7080352535895 24.88342954806381
1.2999999999999996 2415.7432582790025 24.018168190764023
1.3999999999999995 2407.893758831799 26.264929484912113
1.4999999999999993 2398.905700193489 25.687909018761168
1.5999999999999992 2392.557170622348 25.971221516507338
1.699999999999999 2382.939511811586 26.74050057444717
1.799999999999999 2374.016246366396 26.98439172457504
1.8999999999999988 2361.615589695965 26.575236741139708
1.9999999999999987 2353.763543921841 28.14999734041313
2.0999999999999988 2342.3956856727527 27.99013591009231
2.199999999999999 2333.343509576646 27.485912814336277
2.299999999999999 2323.122838497916 28.014654269485565
2.399999999999999 2309.215465344959 29.668860786738854
2.499999999999999 2299.546082897035 31.22554470465076
2.599999999999999 2288.595786514079 29.775305465061592
2.6999999999999993 2274.9800580952333 30.196050203040294
2.7999999999999994 2261.588573019827 31.097749293529667
2.8999999999999995 2252.8324931359434 31.240586238975986
2.9999999999999996 2237.9941911254 32.34254544487257
3.0999999999999996 2228.0556771143033 32.75449554287561
3.1999999999999997 2214.991484711659 32.504282404331015
3.3 2201.0766422834863 33.72588299863007
3.4 2186.451173496653 35.38593787895621
3.5 2173.9947762672527 35.28486352000943
3.6 2159.9388589262935 36.6149781367801
3.7 2145.605750511479 36.83768688658617
3.8000000000000003 2131.3909456398464 35.58346596216923
3.9000000000000004 2120.19218822943 37.05704429043684
4.0 2103.4039333549367 37.68666185014664
4.1 2088.097880603344 38.891697016696114
4.199999999999999 2076.0049903407444 39.03520906938881
4.299999999999999 2061.4757503345713 39.03307609523539
4.399999999999999 2046.68492129795 41.97690097522585
4.499999999999998 2031.2468330613433 42.90734772777917
4.599999999999998 2016.256444381866 42.23913089774857
4.6999999999999975 1998.524461595629 46.517129487628154
4.799999999999997 1984.9367369167085 43.399608803449176
4.899999999999997 1969.8104350424708 43.06995236439287
4.9999999999999964 1952.2404222848054 46.59192763826641
5.099999999999996 1937.9411956443814 46.64580754046929
5.199999999999996 1920.9383584588243 47.478811086417586
5.299999999999995 1904.8065919479038 49.76881066447308
5.399999999999995 1888.6220355383928 48.01047556931688
5.499999999999995 1874.4018288329135 49.04020710552639
5.599999999999994 1858.8177196148274 51.45574133149191
5.699999999999994 1841.5895756282937 52.72320771269013
5.799999999999994 1823.8503687470659 52.46506253861703
5.899999999999993 1806.3991796550245 52.84933911728281
5.999999999999993 1791.1892286584857 54.081876520398396
6.0999999999999925 1773.7599889652026 54.59577497478076
6.199999999999992 1763.9413486404273 55.1395944059081
6.299999999999992 1740.5937937891056 56.59865488401013
6.3999999999999915 1726.6188928068773 56.3154677944957
6.499999999999991 1709.0007434981967 58.27261805868977
6.599999999999991 1688.048572110141 58.050002746946134
6.69999999999999 1677.1013665550834 59.00364374958011
6.79999999999999 1659.3005682636738 58.90018539815309
6.89999999999999 1643.0513535263856 58.036169619056324
6.999999999999989 1627.2603898859127 59.50903270061752
7.099999999999989 1608.6607776299677 59.79802810437235
7.199999999999989 1591.4310157298669 63.51308148479833
7.299999999999988 1575.1565559930798 60.209932387687275
7.399999999999988 1563.6309612246885 63.91410030625239
7.499999999999988 1543.7399748109895 64.47909327605475
7.599999999999987 1528.4306496027323 65.96692973603224
7.699999999999987 1508.7660725944843 65.64336532300514
7.7999999999999865 1490.961329764692 69.50674604922605
7.899999999999986 1476.7143332420828 66.1500082758142
7.999999999999986 1462.6524880504303 68.57451100693036
