# Rounds: 500, repetitions: 1000
# Good arm ~ N(5.0,1.0), 16 bad arm(s) ~ N(2.0,1.0)
# Observation noise range from 0.5 to 8.0 with step size 0.1

# Observation noise | mean | standard deviation

0.5 2450.16814456411 24.152584513830977
0.6 2449.331406525979 24.908611130060695
0.7 2444.042942646217 24.837257887042576
0.7999999999999999 2441.7841236509653 24.688676233700797
0.8999999999999999 2438.1032899472402 24.37885285960864
0.9999999999999999 2432.1600377112472 24.15141301463404
1.0999999999999999 2426.5609239342425 25.593007881447
1.1999999999999997 2418.12902981536 25.799415787073755
1.2999999999999996 2410.8172565149043 26.808397854576214
1.3999999999999995 2401.1273720184668 26.293534441141826
1.4999999999999993 2392.10970176859 27.13063839702144
1.5999999999999992 2381.8329183414635 26.701347980336386
1.699999999999999 2372.3899485989905 27.181825305263093
1.799999999999999 2364.0643285247984 27.734144918304413
1.8999999999999988 2351.3507920050465 27.837626548976235
1.9999999999999987 2339.005205342806 28.751548861973628
2.0999999999999988 2328.8850830757997 29.912822309779372
2.199999999999999 2318.807043072246 29.48633338393747
2.299999999999999 2306.8184267050897 29.86170524519774
2.399999999999999 2295.46480619897 31.36724528515927
2.499999999999999 2282.2657411012015 30.891797192450536
2.599999999999999 2269.6113359671567 31.305926543931257
2.6999999999999993 2255.6238342465103 33.04361072563807
2.7999999999999994 2244.8127044836333 33.50361110409906
2.8999999999999995 2234.0769939276674 34.04688308522182
2.9999999999999996 2218.7909175362734 34.19008660235603
3.0999999999999996 2207.62400653886 36.211306522987435
3.1999999999999997 2192.33818406614 36.669431943157264
3.3 2177.6074784114094 35.61921149688377
3.4 2167.2630973892797 37.99061824072979
3.5 2151.632761544324 37.462370702982085
3.6 2137.7298919093555 38.729487072363774
3.7 2125.398163683227 40.909923184226315
3.8000000000000003 2110.631405612486 38.765785819701996
3.9000000000000004 2096.302119750872 40.95093588595996
4.0 2083.7855351348276 41.5575365889373
4.1 2066.9155246826203 43.839345679956516
4.199999999999999 2053.584877022072 42.37998204987532
4.299999999999999 2039.815364712485 42.23021583579544
4.399999999999999 2027.8624836617312 47.01743614744288
4.499999999999998 2012.1760377162527 46.02392565236028
4.599999999999998 1995.793567173749 46.079683849125324
4.6999999999999975 1981.5280405362307 46.02687802019966
4.799999999999997 1968.4661854562999 47.99566937531548
4.899999999999997 1953.6383805031203 49.9577663471787
4.9999999999999964 1936.7627412298623 50.47049942448838
5.099999999999996 1926.5340561976434 49.87530275560088
5.199999999999996 1909.7501866745663 50.49894682992186
5.299999999999995 1895.6241925337695 52.5947450652348
5.399999999999995 1880.7194770302353 50.49502655022722
5.499999999999995 1865.7457000605293 52.52445453013369
5.599999999999994 1853.5008227041485 54.68512916312392
5.699999999999994 1842.1776067183805 52.79887269007898
5.799999999999994 1827.274065363024 55.82398340556747
5.899999999999993 1809.9270759989784 55.71578623256087
5.999999999999993 1796.7535435718014 55.59064157085963
6.0999999999999925 1779.5662072919465 60.49960892286265
6.199999999999992 1767.5398388734143 57.05731761140538
6.299999999999992 1758.2068327334102 58.803346530837466
6.3999999999999915 1738.7082796420848 57.77343685361924
6.499999999999991 1727.2004528063912 57.21933139477277
6.599999999999991 1712.4549561918177 59.402806474962276
6.69999999999999 1699.5494906155 60.29129478302585
6.79999999999999 1684.4623651517022 59.06104344537467
6.89999999999999 1675.2734800899107 61.10541028892533
6.999999999999989 1658.1486304702162 59.931057724641065
7.099999999999989 1650.5469848965763 62.80123995555676
7.199999999999989 1638.4885020774448 62.30696395921909
7.299999999999988 1625.2453223968587 60.27961999495345
7.399999999999988 1609.9322596621569 62.390346299473684
7.499999999999988 1597.3172887918136 65.52618510601893
7.599999999999987 1586.4827915811316 62.69007482956995
7.699999999999987 1573.5736676020758 64.24292505174209
7.7999999999999865 1562.744236879266 61.67201816084738
7.899999999999986 1552.4562726307352 62.084442656873584
7.999999999999986 1536.370386632089 61.467042275957056
