# Rounds: 50, repetitions: 1000
# Good arm ~ N(5.0,0.0), 13 bad arm(s) ~ N(4.0,0.0)
# Observation noise range from 0.5 to 8.0 with step size 0.1

# Observation noise | mean | standard deviation

0.5 233.76800000000006 6.094531919624276
0.6 230.62899999999988 6.6238383309252304
0.7 227.51699999999994 6.30646354801822
0.7999999999999999 225.01499999999984 6.324933183819401
0.8999999999999999 223.03100000000003 6.026471385259973
0.9999999999999999 221.04400000000004 6.085317994574731
1.0999999999999999 219.54299999999998 6.064728512632027
1.1999999999999997 218.42900000000003 5.9076102494036435
1.2999999999999996 217.15999999999977 5.297968334037927
1.3999999999999995 216.28800000000004 5.333244744008996
1.4999999999999993 215.40300000000005 5.331699355554293
1.5999999999999992 214.29499999999987 4.946558747598522
1.699999999999999 213.75900000000016 4.993180434437639
1.799999999999999 213.35999999999987 4.695151163109071
1.8999999999999988 212.64600000000027 4.6299157789445955
1.9999999999999987 212.64199999999985 4.655051611476032
2.0999999999999988 212.04099999999963 4.357557493287651
2.199999999999999 211.53900000000002 4.327031569355856
2.299999999999999 211.4929999999998 4.133162715649366
2.399999999999999 210.80499999999978 4.153580049454597
2.499999999999999 210.52100000000007 3.861148464831079
2.599999999999999 210.52700000000002 3.899548368398226
2.6999999999999993 210.36900000000014 3.8303407825558393
2.7999999999999994 210.2100000000002 3.785793474587896
2.8999999999999995 209.84499999999986 3.7019832089948244
2.9999999999999996 209.98400000000024 3.497137968964624
3.0999999999999996 209.6069999999998 3.462157930761902
3.1999999999999997 209.52499999999998 3.5261606328709343
3.3 209.39399999999995 3.306311494051293
3.4 209.246 3.383627185866211
3.5 208.97099999999998 3.1144596415524277
3.6 208.8829999999999 3.1513873519836046
3.7 208.90100000000007 3.105614889815515
3.8000000000000003 208.78099999999984 2.9522457138176645
3.9000000000000004 208.69599999999994 2.9920789656251623
4.0 208.79500000000021 3.0308680540665582
4.1 208.57200000000006 2.9317932074775284
4.199999999999999 208.69600000000023 2.9027590340932523
4.299999999999999 208.53600000000023 2.9211705251897295
4.399999999999999 208.52200000000013 2.7945170110996576
4.499999999999998 208.531 2.71521848318167
4.599999999999998 208.48100000000002 2.7834127229691217
4.6999999999999975 208.25600000000006 2.6656274251233225
4.799999999999997 208.32899999999984 2.643434649607718
4.899999999999997 208.28900000000016 2.5748998250629254
4.9999999999999964 208.37599999999975 2.7132979906353727
5.099999999999996 208.1750000000001 2.513701194194261
5.199999999999996 208.04199999999997 2.442581053353651
5.299999999999995 208.05199999999996 2.3859985308019427
5.399999999999995 207.98599999999988 2.4424925321830018
5.499999999999995 208.07899999999984 2.412172791816033
5.599999999999994 208.04900000000018 2.518917216572215
5.699999999999994 208.04600000000005 2.548799792133622
5.799999999999994 207.95200000000014 2.401137534890802
5.899999999999993 208.0460000000001 2.501627898417787
5.999999999999993 208.0600000000003 2.4282290452707187
6.0999999999999925 207.92400000000038 2.315509789568072
6.199999999999992 207.80400000000017 2.338600661304337
6.299999999999992 208.0100000000001 2.305040826799658
6.3999999999999915 207.86299999999991 2.3224178402313087
6.499999999999991 207.9050000000002 2.3313966651795797
6.599999999999991 207.78999999999996 2.2967749509203603
6.69999999999999 207.94700000000006 2.2832880686423254
6.79999999999999 207.87799999999993 2.247702864741735
6.89999999999999 207.79399999999995 2.2357465336130087
6.999999999999989 207.88399999999996 2.2745807784551553
7.099999999999989 207.81900000000024 2.172316265638576
7.199999999999989 207.709 2.1487056419937876
7.299999999999988 207.72599999999977 2.1889987929909287
7.399999999999988 207.81700000000018 2.262881267683231
7.499999999999988 207.7400000000003 2.175116348872192
7.599999999999987 207.84900000000027 2.176450306332756
7.699999999999987 207.619 2.094809592117441
7.7999999999999865 207.6680000000001 2.130331972795399
7.899999999999986 207.75099999999983 2.1469999088515603
7.999999999999986 207.6209999999998 2.065338864357287
