# Rounds: 5000, repetitions: 1000
# Good arm ~ N(5.0,0.0), 13 bad arm(s) ~ N(2.0,0.0)
# Observation noise range from 0.5 to 8.0 with step size 0.1

# Observation noise | mean | standard deviation

0.5 24964.227000000035 4.257181531787744
0.6 24964.062000000005 4.28771973670627
0.7 24962.792999999972 5.288300021473599
0.7999999999999999 24958.33200000001 5.912929793151518
0.8999999999999999 24944.42400000002 6.393363676430408
0.9999999999999999 24930.497999999978 4.159482816083889
1.0999999999999999 24924.01500000001 3.5144168970294354
1.1999999999999997 24916.493999999962 5.198748983264293
1.2999999999999996 24903.992999999977 5.751176142931792
1.3999999999999995 24890.613000000023 5.454446074715699
1.4999999999999993 24878.520000000008 5.567278921932591
1.5999999999999992 24865.658999999996 6.155047002550288
1.699999999999999 24851.486999999986 6.4177112756821035
1.799999999999999 24836.946000000044 6.611262571762907
1.8999999999999988 24822.945 7.010786412816048
1.9999999999999987 24806.969999999976 7.096439914454219
2.0999999999999988 24791.46599999996 7.734511404521049
2.199999999999999 24775.515000000003 7.979689871821471
2.299999999999999 24758.292000000012 8.484380986301911
2.399999999999999 24740.673000000013 8.807817473622478
2.499999999999999 24723.498000000018 8.638090796733513
2.599999999999999 24705.504000000008 9.217969133977075
2.6999999999999993 24687.177000000007 9.548132688533311
2.7999999999999994 24667.56899999998 10.140220069755012
2.8999999999999995 24648.362999999998 10.2809011243144
2.9999999999999996 24628.806 10.845182431936363
3.0999999999999996 24609.446999999996 10.979423424694854
3.1999999999999997 24589.076999999997 11.787196825751732
3.3 24567.734999999986 11.57621629824625
3.4 24546.905999999974 11.88563975696866
3.5 24525.569999999996 12.32221315092936
3.6 24502.952999999994 12.137797045473928
3.7 24481.385999999984 12.687709879327334
3.8000000000000003 24459.38399999998 13.27926514845174
3.9000000000000004 24435.953999999998 14.095196293722042
4.0 24412.752000000015 14.229440360498153
4.1 24390.879000000037 15.340915966874446
4.199999999999999 24366.798000000017 14.640817926248193
4.299999999999999 24342.23100000001 14.919323886330222
4.399999999999999 24318.159 16.079249399809203
4.499999999999998 24294.37200000003 15.722430181457698
4.599999999999998 24269.195999999996 15.879097258022176
4.6999999999999975 24245.277000000002 16.914442626624396
4.799999999999997 24218.804999999997 16.54172311470607
4.899999999999997 24193.647000000004 16.766439827957047
4.9999999999999964 24168.332999999977 17.98114102142662
5.099999999999996 24142.605000000014 17.676465496032588
5.199999999999996 24114.938999999988 17.939093903820567
5.299999999999995 24087.654000000042 18.761297137198923
5.399999999999995 24062.508000000023 19.85739792249369
5.499999999999995 24035.753999999997 19.76010996796187
5.599999999999994 24008.08200000001 18.820719845306005
5.699999999999994 23979.635999999977 20.33792356990096
5.799999999999994 23953.53900000002 20.848192394693008
5.899999999999993 23924.057999999994 21.47770769723642
5.999999999999993 23896.161000000044 20.7045346906603
6.0999999999999925 23867.397000000004 22.0663616238681
6.199999999999992 23840.14199999999 21.833564540416695
6.299999999999992 23810.94600000001 22.196841752460855
6.3999999999999915 23780.144999999986 22.607456116778682
6.499999999999991 23752.484999999997 23.47549517845953
6.599999999999991 23722.449000000004 24.095476567003008
6.69999999999999 23693.352 24.086806975401856
6.79999999999999 23663.30099999999 24.20421953385903
6.89999999999999 23633.121000000025 25.9290700889113
6.999999999999989 23602.965000000007 25.232964104073766
7.099999999999989 23573.105999999985 25.915523887785515
7.199999999999989 23542.533000000014 25.395587153024124
7.299999999999988 23510.28600000003 26.367355601983363
7.399999999999988 23480.289000000015 26.895666116604335
7.499999999999988 23448.026999999944 26.266293784795536
7.599999999999987 23417.55 26.700457194857492
7.699999999999987 23388.191999999992 29.214013668008665
7.7999999999999865 23354.06399999998 28.617492288194406
7.899999999999986 23322.983999999982 30.407801274975267
7.999999999999986 23291.126999999993 28.938941468777692
