# Rounds: 10000, repetitions: 1000
# Good arm ~ N(5.0,0.0), 16 bad arm(s) ~ N(0.5,0.0)
# Observation noise range from 0.5 to 8.0 with step size 0.1

# Observation noise | mean | standard deviation

0.5 49932.572500000024 2.0826260060513
0.6 49932.43300000003 2.391386570533847
0.7 49932.275499999996 2.8513119313273725
0.7999999999999999 49932.23050000001 2.6702527970212935
0.8999999999999999 49932.000999999975 3.4012597030464757
0.9999999999999999 49930.64200000001 4.638464331150022
1.0999999999999999 49925.36349999999 6.805985541359051
1.1999999999999997 49909.68099999997 8.761335514634766
1.2999999999999996 49885.075000000026 8.731931150760559
1.3999999999999995 49866.008499999996 5.062242986469006
1.4999999999999993 49858.45749999988 4.061457766515475
1.5999999999999992 49852.103499999954 5.898587210602296
1.699999999999999 49839.854499999994 7.955618871063505
1.799999999999999 49821.89950000003 8.970988149494985
1.8999999999999988 49801.89700000002 8.340770915176849
1.9999999999999987 49785.15700000004 7.863726164433074
2.0999999999999988 49769.51049999998 8.310818820035772
2.199999999999999 49752.86949999996 9.605909287685465
2.299999999999999 49733.36199999999 10.14506670152433
2.399999999999999 49713.42699999999 9.914735143864059
2.499999999999999 49693.92399999997 10.10112650929378
2.599999999999999 49674.029500000004 11.195678763387924
2.6999999999999993 49652.83450000001 11.665888423206361
2.7999999999999994 49631.36950000002 11.425574975182391
2.8999999999999995 49610.48500000001 11.687744794372344
2.9999999999999996 49588.070499999965 12.066705645499688
3.0999999999999996 49564.99000000004 12.854381942945995
3.1999999999999997 49541.60799999998 12.58492019109433
3.3 49516.920999999995 13.027431557025041
3.4 49492.50850000002 13.457313142935593
3.5 49467.93400000002 14.222338728877087
3.6 49443.11200000002 14.276826810737163
3.7 49417.00749999997 14.657422480906586
3.8000000000000003 49390.74100000004 14.920054524934924
3.9000000000000004 49364.96499999998 16.162456496461257
4.0 49337.90650000002 15.831002128051718
4.1 49309.777 16.398313196047752
4.199999999999999 49281.55749999991 16.58135655292228
4.299999999999999 49254.05800000005 17.380455006017996
4.399999999999999 49224.704500000065 17.67602533437934
4.499999999999998 49194.93250000005 17.6111000393104
4.599999999999998 49166.10550000002 18.926471701854076
4.6999999999999975 49134.97449999999 18.457078953981686
4.799999999999997 49105.206999999995 18.688349456423616
4.899999999999997 49074.21099999995 19.635721034394052
4.9999999999999964 49043.48499999989 19.972497982868166
5.099999999999996 49011.42699999999 20.06992707941347
5.199999999999996 48981.092500000035 21.253668204857295
5.299999999999995 48948.048999999955 20.816337788355554
5.399999999999995 48915.00999999999 21.205366480388136
5.499999999999995 48880.85499999998 21.510164159349568
5.599999999999994 48847.496500000074 21.717133135421538
5.699999999999994 48813.79600000002 22.373543739413748
5.799999999999994 48780.500500000024 23.102596817884585
5.899999999999993 48744.810999999994 23.21793167686029
5.999999999999993 48711.54250000009 24.53531996277356
6.0999999999999925 48674.29599999999 24.395830392518793
6.199999999999992 48639.20499999995 24.66227286165449
6.299999999999992 48603.67299999995 24.908954755810893
6.3999999999999915 48566.71000000001 24.728635332452285
6.499999999999991 48533.112999999976 25.194354258176347
6.599999999999991 48493.04949999997 25.588827402556742
6.69999999999999 48456.28900000002 25.953064184033064
6.79999999999999 48418.448499999955 28.31895232544472
6.89999999999999 48378.80799999994 27.024997437307746
6.999999999999989 48342.79450000002 28.312455118990577
7.099999999999989 48303.6129999999 28.40367933912782
7.199999999999989 48265.23249999996 29.426537595593324
7.299999999999988 48225.3085 28.306895946184312
7.399999999999988 48185.578000000016 30.157069898530676
7.499999999999988 48144.90249999992 28.973301433318632
7.599999999999987 48106.58499999996 31.402713344636158
7.699999999999987 48064.01049999999 32.13845858578586
7.7999999999999865 48026.03950000004 31.200194580993966
7.899999999999986 47983.5235 31.484845453697968
7.999999999999986 47941.73650000003 31.50868316615055
