# Rounds: 10000, repetitions: 1000
# Good arm ~ N(5.0,0.0), 16 bad arm(s) ~ N(4.9,0.0)
# Observation noise range from 0.5 to 8.0 with step size 0.1

# Observation noise | mean | standard deviation

0.5 49736.0209000009 1.8396677872666758
0.6 49659.10700000148 2.2493667221115383
0.7 49583.039500002145 2.536833710579843
0.7999999999999999 49511.671300002876 2.840974735412437
0.8999999999999999 49446.69960000361 3.0555648113060223
0.9999999999999999 49389.44920000423 3.1864922866445853
1.0999999999999999 49341.16090000482 3.127933048340819
1.1999999999999997 49301.07700000537 3.1270832495160787
1.2999999999999996 49267.99230000581 2.9551689856109022
1.3999999999999995 49241.005800006074 2.933034102907691
1.4999999999999993 49219.39620000642 3.0112278314360803
1.5999999999999992 49201.795000006656 2.905280650030522
1.699999999999999 49187.10330000681 2.7806422065561396
1.799999999999999 49174.84240000696 2.561265765622406
1.8999999999999988 49164.5936000071 2.562429527793542
1.9999999999999987 49155.954700007176 2.425803461182517
2.0999999999999988 49148.574000007255 2.4748431967877074
2.199999999999999 49142.22790000738 2.3901347941470967
2.299999999999999 49136.7922000074 2.2886496186504246
2.399999999999999 49131.90410000749 2.235170950743809
2.499999999999999 49127.79290000763 2.200941556154126
2.599999999999999 49123.82700000765 2.0527359120488384
2.6999999999999993 49120.586800007615 2.09238711612607
2.7999999999999994 49117.63260000771 2.0215746347586907
2.8999999999999995 49114.88500000771 2.059698365599445
2.9999999999999996 49112.44110000774 2.018428805962531
3.0999999999999996 49110.167200007825 1.9944578265588464
3.1999999999999997 49108.092200007886 1.9414758531568979
3.3 49106.348400007795 1.941908455194408
3.4 49104.588600007904 1.8852331802862725
3.5 49103.08400000783 1.9469809281649524
3.6 49101.607200007864 1.842825049775234
3.7 49100.04050000789 1.8590227851293257
3.8000000000000003 49098.90670000786 1.8620935804670808
3.9000000000000004 49097.790800008 1.9174493401075938
4.0 49096.571400007895 1.8282791484242789
4.1 49095.656600007955 1.8691308381180947
4.199999999999999 49094.64770000794 1.7766178770357088
4.299999999999999 49093.726800007986 1.8728131751734005
4.399999999999999 49092.885400007945 1.7346919023043164
4.499999999999998 49092.09300000794 1.848233471963077
4.599999999999998 49091.32790000806 1.7450779027912846
4.6999999999999975 49090.526600007994 1.7995640779910593
4.799999999999997 49089.91270000804 1.7421147131001133
4.899999999999997 49089.16400000803 1.7990721665846106
4.9999999999999964 49088.614000008056 1.8754362855563484
5.099999999999996 49088.007600008095 1.780132329641846
5.199999999999996 49087.43050000808 1.746209895437494
5.299999999999995 49086.991700008046 1.8352736415201563
5.399999999999995 49086.58730000809 1.7344154366350888
5.499999999999995 49085.9489000081 1.7853476569516455
5.599999999999994 49085.39270000809 1.7298870538696307
5.699999999999994 49085.059200008036 1.7618341066475207
5.799999999999994 49084.56570000814 1.7356745305519437
5.899999999999993 49084.187300008074 1.733457119029009
5.999999999999993 49083.834100008164 1.7526148603674068
6.0999999999999925 49083.437400008035 1.71217194601164
6.199999999999992 49083.20420000807 1.7550619939286416
6.299999999999992 49082.76910000802 1.7428002015356938
6.3999999999999915 49082.402600008085 1.7572196962794393
6.499999999999991 49082.052500008125 1.7159482008979443
6.599999999999991 49081.75050000814 1.6913072666459805
6.69999999999999 49081.55960000809 1.761576280188789
6.79999999999999 49081.15950000813 1.714832470049475
6.89999999999999 49080.84640000812 1.737315545672812
6.999999999999989 49080.58880000814 1.7987857543693708
7.099999999999989 49080.380600008124 1.7323407992023567
7.199999999999989 49080.08680000818 1.8158642909238982
7.299999999999988 49079.8906000082 1.7513991660882382
7.399999999999988 49079.65260000814 1.7898706313046477
7.499999999999988 49079.41860000812 1.657039474412081
7.599999999999987 49079.115500008156 1.6901616479897579
7.699999999999987 49078.78830000813 1.7207015789685232
7.7999999999999865 49078.62370000809 1.7317526605193219
7.899999999999986 49078.53260000815 1.785610720616162
7.999999999999986 49078.306400008165 1.758690430965462
