# Rounds: 10000, repetitions: 1000
# Good arm ~ N(5.0,0.0), 16 bad arm(s) ~ N(0.0,0.0)
# Observation noise range from 0.5 to 8.0 with step size 0.1

# Observation noise | mean | standard deviation

0.5 49924.79500000002 1.1976683219528768
0.6 49924.685000000005 1.5900639305711246
0.7 49924.68499999998 1.605725179896428
0.7999999999999999 49924.535 1.9780514876230613
0.8999999999999999 49924.40500000002 2.1853491141579013
0.9999999999999999 49924.00499999995 3.45643196402328
1.0999999999999999 49922.81999999998 3.8746112853565537
1.1999999999999997 49917.559999999896 6.924185464323242
1.2999999999999996 49903.24500000003 9.334458051065736
1.3999999999999995 49879.01999999997 10.254011153921482
1.4999999999999993 49855.90500000005 7.287597963944301
1.5999999999999992 49845.115 3.9909526059203504
1.699999999999999 49839.84000000003 5.181819299363066
1.799999999999999 49830.89000000005 7.44401190980455
1.8999999999999988 49816.345000000045 10.105349726411982
1.9999999999999987 49796.80000000004 10.147066717182932
2.0999999999999988 49776.675000000025 9.187152920180331
2.199999999999999 49760.06500000004 8.360063735741816
2.299999999999999 49744.51999999999 9.233355557697067
2.399999999999999 49727.625000000095 10.651188798571793
2.499999999999999 49708.44500000005 11.282032585454642
2.599999999999999 49688.015 10.86521181697931
2.6999999999999993 49668.665000000045 10.696129308407974
2.7999999999999994 49649.00499999993 11.617656602987786
2.8999999999999995 49627.76999999995 12.063275783244944
2.9999999999999996 49606.574999999924 12.571890368096156
3.0999999999999996 49583.895000000004 12.48237897136531
3.1999999999999997 49562.28500000003 13.399004004339652
3.3 49539.310000000034 13.655048896300618
3.4 49516.544999999955 13.6939950525951
3.5 49491.59 14.494205117286926
3.6 49469.53499999995 15.138955147663378
3.7 49443.58500000004 14.897809225510938
3.8000000000000003 49418.895000000026 16.00187598486614
3.9000000000000004 49393.61999999999 15.44617053460775
4.0 49367.74499999998 15.79840386129457
4.1 49341.35000000001 16.76629382447436
4.199999999999999 49313.66000000003 17.488861033819855
4.299999999999999 49286.21500000001 17.45145633832103
4.399999999999999 49258.039999999964 17.164003117076184
4.499999999999998 49231.06999999996 17.93534992066723
4.599999999999998 49202.65999999992 18.508564692243674
4.6999999999999975 49174.015000000014 18.62126543837799
4.799999999999997 49144.96000000001 19.35130158084645
4.899999999999997 49114.76499999999 19.145138059343143
4.9999999999999964 49086.49000000005 19.946873884841764
5.099999999999996 49054.74000000005 20.432814292208835
5.199999999999996 49023.510000000024 20.967105654322406
5.299999999999995 48993.020000000004 21.45553401665731
5.399999999999995 48961.740000000056 21.27145681129705
5.499999999999995 48929.68499999999 21.92273663075351
5.599999999999994 48896.34500000001 22.54826821286715
5.699999999999994 48864.07000000007 23.28040113651557
5.799999999999994 48832.24499999998 22.662713287988602
5.899999999999993 48797.599999999955 24.94217536848208
5.999999999999993 48763.900000000045 24.65355547984499
6.0999999999999925 48730.34000000001 24.328507481476862
6.199999999999992 48696.32499999995 25.110753173191018
6.299999999999992 48660.29499999996 25.39355839199791
6.3999999999999915 48626.26000000005 25.824974914398833
6.499999999999991 48590.885000000024 25.906812577735902
6.599999999999991 48556.084999999934 26.114742096271197
6.69999999999999 48518.82999999999 27.9877547226355
6.79999999999999 48482.65999999996 27.020446045624556
6.89999999999999 48444.455000000016 27.490611282921755
6.999999999999989 48407.764999999985 27.875739126197725
7.099999999999989 48370.87499999997 28.49686730934562
7.199999999999989 48334.499999999985 28.80937312716089
7.299999999999988 48296.67500000004 28.82968132889304
7.399999999999988 48256.96999999997 29.098381670048354
7.499999999999988 48218.16500000002 31.030963499313064
7.599999999999987 48179.67000000003 31.34044229622998
7.699999999999987 48139.41500000005 30.0063852897704
7.7999999999999865 48099.71999999998 30.177512857793264
7.899999999999986 48061.86999999998 32.061363524202
7.999999999999986 48019.320000000036 31.602790008737053
