# Rounds: 10000, repetitions: 1000
# Good arm ~ N(5.0,2.0), 16 bad arm(s) ~ N(4.5,2.0)
# Observation noise range from 0.5 to 8.0 with step size 0.1

# Observation noise | mean | standard deviation

0.5 48117.173972249744 2224.631005235895
0.6 48383.93976805359 2100.6995396139587
0.7 48668.2360753305 1890.3466013362952
0.7999999999999999 48960.8875853029 1679.1062247248015
0.8999999999999999 49031.137612240374 1510.0871799383485
0.9999999999999999 49162.28537809372 1343.4108838498034
1.0999999999999999 49168.59043975802 1212.22353809918
1.1999999999999997 49194.50600346512 1141.1181921454152
1.2999999999999996 49266.42809999819 901.6225085233076
1.3999999999999995 49257.7827545487 832.8319691343659
1.4999999999999993 49260.26207938952 652.4460497103424
1.5999999999999992 49231.71648938087 575.0580671901313
1.699999999999999 49183.41291500079 537.194652682389
1.799999999999999 49131.205243259436 484.8108331465137
1.8999999999999988 49090.561212036446 379.6119100886231
1.9999999999999987 49006.77905099325 426.26452055010907
2.0999999999999988 48964.34067046005 384.90652509962746
2.199999999999999 48913.30363539914 347.957673729499
2.299999999999999 48860.74633826779 294.75560712363824
2.399999999999999 48798.407461505114 331.83811791502643
2.499999999999999 48707.6832232702 332.3462807186887
2.599999999999999 48630.365882120495 319.98988576484976
2.6999999999999993 48572.427758360776 310.38039033250305
2.7999999999999994 48507.76575251026 313.1662995755887
2.8999999999999995 48439.5774758228 315.9171661593727
2.9999999999999996 48365.20635409209 341.6382772912355
3.0999999999999996 48291.02364010376 337.91934418457396
3.1999999999999997 48218.44485273355 323.1560575386933
3.3 48151.643674497245 329.7891284808376
3.4 48091.67608288949 343.99023316535965
3.5 48028.061948343115 348.92487759021066
3.6 47972.425369853816 340.61219930739173
3.7 47871.73961703273 359.97043980043964
3.8000000000000003 47816.93577983644 365.04514110829115
3.9000000000000004 47765.23152778252 360.0898647335641
4.0 47706.25044776346 350.4914940214415
4.1 47633.41499542496 363.92314791071243
4.199999999999999 47576.7844269019 352.3290668007694
4.299999999999999 47479.20525278105 358.7420425725093
4.399999999999999 47443.43073341969 359.6139683371413
4.499999999999998 47383.77780121345 361.8242810635362
4.599999999999998 47342.68858051412 362.62538782059033
4.6999999999999975 47279.9279796874 345.80551500380636
4.799999999999997 47211.97883032113 365.4273983480861
4.899999999999997 47176.57740756717 356.21998004839924
4.9999999999999964 47127.42777421132 354.5370537106589
5.099999999999996 47044.85728911324 346.13289144083535
5.199999999999996 47012.12096118495 351.7521103654298
5.299999999999995 46953.7020656008 359.8836139439438
5.399999999999995 46936.455557487374 343.69105328271786
5.499999999999995 46886.38234202201 332.16329999091
5.599999999999994 46851.07444496838 348.0415023881637
5.699999999999994 46809.31759405158 341.1981209087273
5.799999999999994 46772.25807854996 345.0990878103891
5.899999999999993 46760.69682184983 349.96335407831515
5.999999999999993 46676.82978504078 340.94506609147714
6.0999999999999925 46690.201650702045 340.7123618712861
6.199999999999992 46613.064108148246 343.1481841720418
6.299999999999992 46594.58723224423 327.390371854673
6.3999999999999915 46558.647030011714 334.54094633528297
6.499999999999991 46520.51096610932 315.1366793076451
6.599999999999991 46507.77597161524 316.8233025552638
6.69999999999999 46460.27155116722 317.68677569655966
6.79999999999999 46432.21270914516 314.5760308982918
6.89999999999999 46410.657936675154 304.89538601509673
6.999999999999989 46384.298232139925 319.38556117773965
7.099999999999989 46342.43991648148 301.5465050086936
7.199999999999989 46363.44673606037 309.7337708408015
7.299999999999988 46324.732835946765 307.7831435934035
7.399999999999988 46281.064762605805 291.63034933493697
7.499999999999988 46283.0432650226 308.8612345070734
7.599999999999987 46261.85368578086 280.9142386791152
7.699999999999987 46213.13588878099 295.0177276052579
7.7999999999999865 46216.74127992033 291.6255782805462
7.899999999999986 46201.80886212895 283.78379305026397
7.999999999999986 46173.745053973005 280.3944115351127
