# Rounds: 10000, repetitions: 1000
# Good arm ~ N(5.0,0.0), 16 bad arm(s) ~ N(1.0,0.0)
# Observation noise range from 0.5 to 8.0 with step size 0.1

# Observation noise | mean | standard deviation

0.5 49940.32799999999 2.659979603585599
0.6 49940.179999999964 2.7869997070985515
0.7 49940.13600000001 2.9390716463097846
0.7999999999999999 49939.79599999997 3.4435798585545268
0.8999999999999999 49938.320000000036 4.926039572097004
0.9999999999999999 49932.308 6.6667519514064635
1.0999999999999999 49914.88 8.642006959282302
1.1999999999999997 49890.78399999997 6.557770074373511
1.2999999999999996 49877.49199999999 3.6893830849543585
1.3999999999999995 49871.52799999993 4.70226831724087
1.4999999999999993 49861.3440000001 6.680590864159681
1.5999999999999992 49844.080000000016 8.445171455981324
1.699999999999999 49824.78400000001 7.522361991418057
1.799999999999999 49808.54000000005 7.082270720507499
1.8999999999999988 49792.939999999944 8.225816923811445
1.9999999999999987 49775.32399999999 9.157012333445671
2.0999999999999988 49755.99199999995 8.86106395724887
2.199999999999999 49736.82000000006 8.561828362266223
2.299999999999999 49717.247999999956 9.380537857206848
2.399999999999999 49696.85999999997 9.9984182933287
2.499999999999999 49675.96799999996 10.257494440270996
2.599999999999999 49654.24800000004 10.496126174197144
2.6999999999999993 49632.6160000001 11.197585897412287
2.7999999999999994 49609.80799999999 11.624554454527187
2.8999999999999995 49587.14399999997 11.428292517689137
2.9999999999999996 49562.65199999999 12.113861549548947
3.0999999999999996 49538.09200000002 12.44775009720561
3.1999999999999997 49513.83600000001 13.096588281862715
3.3 49488.77599999999 13.29656431649241
3.4 49463.00799999995 13.421925498380627
3.5 49435.90799999999 14.126822116212132
3.6 49409.64399999995 13.987026163588334
3.7 49382.88800000006 14.440082131760015
3.8000000000000003 49355.06400000001 15.646620105336375
3.9000000000000004 49327.09999999997 15.869020947299175
4.0 49297.31200000002 16.33577404084393
4.1 49269.316000000006 16.07627415138829
4.199999999999999 49240.65200000001 16.616467825714416
4.299999999999999 49209.507999999994 17.12317549811188
4.399999999999999 49179.992 17.886079722729907
4.499999999999998 49149.380000000056 18.417024373844747
4.599999999999998 49118.96000000001 18.426555237969424
4.6999999999999975 49086.079999999965 18.435766256857356
4.799999999999997 49054.09199999999 18.58173341797821
4.899999999999997 49023.19999999998 20.163694467397715
4.9999999999999964 48987.36399999993 19.672481046134443
5.099999999999996 48956.63599999994 20.102925947026385
5.199999999999996 48922.94399999999 20.525939154596234
5.299999999999995 48889.212000000065 20.439295996213204
5.399999999999995 48853.95199999998 20.685879280359277
5.499999999999995 48819.456000000086 22.24227467645274
5.599999999999994 48785.151999999995 22.27089780159071
5.699999999999994 48750.572000000015 22.768030200243306
5.799999999999994 48713.42000000005 22.33603587252019
5.899999999999993 48676.49199999996 23.43166615883276
5.999999999999993 48640.59600000003 22.843962673551665
6.0999999999999925 48606.04800000002 24.163393088835203
6.199999999999992 48568.123999999996 24.656044787121687
6.299999999999992 48529.54399999993 25.234040913433418
6.3999999999999915 48491.428 25.261650123596027
6.499999999999991 48453.48000000002 24.899268534910252
6.599999999999991 48415.412 25.765366485072892
6.69999999999999 48375.711999999956 25.880395106158375
6.79999999999999 48336.64000000006 25.808379888565046
6.89999999999999 48299.163999999975 26.60904254469013
6.999999999999989 48258.26400000002 27.787307146221366
7.099999999999989 48217.83599999997 26.897892121885555
7.199999999999989 48176.50400000003 28.030192216174132
7.299999999999988 48137.544000000096 27.985268253837276
7.399999999999988 48097.46800000001 29.328776877891496
7.499999999999988 48054.31600000003 29.966082662071596
7.599999999999987 48013.244000000035 30.610806678124046
7.699999999999987 47972.12799999995 29.47562430939249
7.7999999999999865 47928.296000000075 30.444428837592916
7.899999999999986 47884.971999999965 31.820555679682464
7.999999999999986 47841.980000000076 31.9065138431891
