# Rounds: 10000, repetitions: 1000
# Good arm ~ N(5.0,0.0), 16 bad arm(s) ~ N(4.0,0.0)
# Observation noise range from 0.5 to 8.0 with step size 0.1

# Observation noise | mean | standard deviation

0.5 49944.016999999956 2.4549414937504817
0.6 49923.51100000002 2.5625076478803557
0.7 49900.03699999998 2.771879202691622
0.7999999999999999 49874.43499999999 3.3227723087529943
0.8999999999999999 49846.61900000004 3.50829690122531
0.9999999999999999 49816.58299999995 3.938098477643677
1.0999999999999999 49784.78799999996 4.347868438667361
1.1999999999999997 49751.174000000065 4.739640090575291
1.2999999999999996 49715.86699999997 4.886224123613837
1.3999999999999995 49678.374999999956 5.530729062606842
1.4999999999999993 49639.75899999999 5.94695596799611
1.5999999999999992 49599.436000000016 6.306161405456668
1.699999999999999 49558.25099999995 6.57900313742757
1.799999999999999 49515.236 6.9449648333548755
1.8999999999999988 49471.22100000002 7.444836101928981
1.9999999999999987 49425.528 8.034411476130007
2.0999999999999988 49378.17499999992 7.954347656888367
2.199999999999999 49331.02199999997 8.358431633947792
2.299999999999999 49281.86799999997 8.590015387900275
2.399999999999999 49232.206000000064 9.433162171220713
2.499999999999999 49181.865 9.927302066842131
2.599999999999999 49129.874999999985 10.059451653423519
2.6999999999999993 49077.60500000003 10.47791781613895
2.7999999999999994 49024.67400000005 10.327845292624534
2.8999999999999995 48969.94500000002 11.15268386341861
2.9999999999999996 48915.19499999996 11.54340613619855
3.0999999999999996 48859.631999999925 11.572229365705269
3.1999999999999997 48803.33000000001 12.484989986979324
3.3 48747.07999999999 12.47947664516967
3.4 48688.582999999984 12.547930568885178
3.5 48630.62999999998 13.027233352051775
3.6 48572.68200000002 13.901299296185242
3.7 48512.504000000015 13.765517551965733
3.8000000000000003 48453.73100000003 14.630676528981871
3.9000000000000004 48393.250000000015 15.882057163344241
4.0 48333.262 15.204161355448946
4.1 48271.181 16.115891565810617
4.199999999999999 48211.157 16.631444794603958
4.299999999999999 48148.39900000004 16.953324577032582
4.399999999999999 48087.94400000004 17.179755761011464
4.499999999999998 48025.51900000009 17.12883638885142
4.599999999999998 47964.19599999995 17.669799257654645
4.6999999999999975 47901.710999999996 17.468045443369125
4.799999999999997 47836.74499999996 17.920857460850865
4.899999999999997 47775.317000000025 19.05811435380532
4.9999999999999964 47712.55399999998 18.38545917591155
5.099999999999996 47649.46799999994 20.520966987110583
5.199999999999996 47585.08200000006 18.964781542083223
5.299999999999995 47523.39699999998 20.06060365040928
5.399999999999995 47458.763 20.395902133120302
5.499999999999995 47395.39 21.040594255072893
5.599999999999994 47332.20700000006 20.85639326777621
5.699999999999994 47269.04999999997 22.233259271141897
5.799999999999994 47205.74600000006 21.970028815779205
5.899999999999993 47144.117000000064 22.53226606477962
5.999999999999993 47079.07000000003 23.149146484978345
6.0999999999999925 47016.13699999998 22.92657538444978
6.199999999999992 46953.70600000005 23.503531223626407
6.299999999999992 46890.88200000002 24.6149949009536
6.3999999999999915 46827.87099999999 24.010307241971198
6.499999999999991 46763.508000000016 25.695918279295125
6.599999999999991 46701.715999999986 24.94139966837107
6.69999999999999 46640.54 26.66971454053599
6.79999999999999 46577.71899999998 25.84929835073325
6.89999999999999 46516.759999999944 26.986490521567756
6.999999999999989 46454.44800000004 26.798123729758355
7.099999999999989 46395.601 27.604924032332146
7.199999999999989 46333.421 28.717215001414125
7.299999999999988 46273.045 26.931548104096926
7.399999999999988 46213.84000000005 29.163485884045294
7.499999999999988 46152.51800000002 29.01950736673198
7.599999999999987 46093.51800000006 29.898521662410044
7.699999999999987 46034.60300000004 28.991963109194955
7.7999999999999865 45975.165999999925 32.0528911618255
7.899999999999986 45916.88399999998 31.1056603547667
7.999999999999986 45859.28800000001 30.574791477193607
