# Rounds: 10000, repetitions: 1000
# Good arm ~ N(5.0,0.0), 16 bad arm(s) ~ N(2.0,0.0)
# Observation noise range from 0.5 to 8.0 with step size 0.1

# Observation noise | mean | standard deviation

0.5 49955.32300000001 4.2959429845059764
0.6 49955.03199999994 4.396624421792958
0.7 49953.04300000003 6.37791727986723
0.7999999999999999 49942.55800000001 6.7446368416784725
0.8999999999999999 49920.543999999936 5.6079865828578015
0.9999999999999999 49908.05200000002 3.425058689574134
1.0999999999999999 49900.85199999993 4.813030361556108
1.1999999999999997 49886.41300000006 6.208943709036326
1.2999999999999996 49867.42599999999 5.887715107678812
1.3999999999999995 49851.57999999995 5.775374875707609
1.4999999999999993 49834.773999999976 6.635582487992648
1.5999999999999992 49815.934000000045 6.74738254222866
1.699999999999999 49796.863000000034 6.705758584843164
1.799999999999999 49777.00000000005 7.796973309739671
1.8999999999999988 49757.152000000024 7.62555211411246
1.9999999999999987 49735.309 8.397978628518057
2.0999999999999988 49713.25599999994 8.329095859565916
2.199999999999999 49690.363000000005 8.979636120960885
2.299999999999999 49666.19200000003 9.589739261267583
2.399999999999999 49642.416999999994 9.451478267522123
2.499999999999999 49617.58000000001 9.843093339315999
2.599999999999999 49592.45200000001 10.181127214181792
2.6999999999999993 49567.099 10.905784480501072
2.7999999999999994 49539.75999999997 11.122414670749759
2.8999999999999995 49511.98600000001 11.50391864297299
2.9999999999999996 49484.86300000005 11.876754114163035
3.0999999999999996 49456.11399999998 12.327569629613608
3.1999999999999997 49427.52099999998 12.681813253134894
3.3 49397.37700000007 12.99144521016231
3.4 49367.698000000004 13.363134713433393
3.5 49336.82800000005 13.689551483515434
3.6 49306.61800000001 14.180802909961445
3.7 49274.82400000003 14.224815266616652
3.8000000000000003 49242.89500000007 15.159148220621699
3.9000000000000004 49211.152 15.209214845488063
4.0 49177.27299999997 16.09675670986467
4.1 49143.88900000006 16.59361404357182
4.199999999999999 49109.75199999999 16.412735112523954
4.299999999999999 49075.97199999993 16.364382328979364
4.399999999999999 49040.60499999998 17.65351584307275
4.499999999999998 49005.40299999997 17.77978379260313
4.599999999999998 48969.075999999994 18.585360896136528
4.6999999999999975 48933.09099999994 18.496454736998643
4.799999999999997 48897.175000000025 18.95784203897622
4.899999999999997 48860.48500000002 19.298502719309738
4.9999999999999964 48823.977999999945 19.752003889673045
5.099999999999996 48785.86900000001 19.846907535904524
5.199999999999996 48746.47600000008 20.27467598967965
5.299999999999995 48708.850000000064 20.144858284815797
5.399999999999995 48670.18600000004 21.061504955510543
5.499999999999995 48629.26599999992 21.759934254007796
5.599999999999994 48588.643000000004 22.159300205231794
5.699999999999994 48550.29100000002 21.429454975349753
5.799999999999994 48511.998999999996 22.01353207903248
5.899999999999993 48469.50400000004 22.78449290893089
5.999999999999993 48428.79699999988 22.84578124557627
6.0999999999999925 48387.12400000004 23.462973706142595
6.199999999999992 48347.10400000002 24.31967579205418
6.299999999999992 48303.343000000015 24.661499154360893
6.3999999999999915 48260.89600000004 25.14795426279446
6.499999999999991 48217.809999999976 24.95132197837353
6.599999999999991 48173.79999999995 26.395467806438255
6.69999999999999 48132.30700000002 26.005827309548334
6.79999999999999 48085.89699999988 27.28686431167864
6.89999999999999 48043.92099999998 25.920312915194923
6.999999999999989 47997.99700000006 27.347447300870204
7.099999999999989 47955.22300000003 26.9500570792823
7.199999999999989 47910.20800000003 27.93110958918189
7.299999999999988 47862.85599999999 29.801701384407615
7.399999999999988 47819.56299999998 28.27687416622643
7.499999999999988 47774.00199999999 29.13628183071598
7.599999999999987 47724.81999999997 29.46067771677232
7.699999999999987 47681.16100000003 30.489583363727668
7.7999999999999865 47636.09199999996 30.361115482362226
7.899999999999986 47587.83400000004 31.091657002082403
7.999999999999986 47539.761999999966 30.95004460838889
