# Rounds: 10000, repetitions: 1000
# Good arm ~ N(5.0,1.0), 16 bad arm(s) ~ N(4.5,1.0)
# Observation noise range from 0.5 to 8.0 with step size 0.1

# Observation noise | mean | standard deviation

0.5 49698.513399078285 818.7826146911057
0.6 49773.305540269226 502.60448555619
0.7 49787.61598040879 359.9158398129788
0.7999999999999999 49760.73079331678 244.25676913015803
0.8999999999999999 49719.41246032387 244.0271117646051
0.9999999999999999 49690.28770027478 137.48985257857743
1.0999999999999999 49645.20784992187 127.93967682636057
1.1999999999999997 49582.1885739245 120.42934018256625
1.2999999999999996 49537.75441977672 115.60661258549041
1.3999999999999995 49476.13959508112 116.247900299754
1.4999999999999993 49418.22642377963 123.27724627491497
1.5999999999999992 49356.92247967825 127.98072009630778
1.699999999999999 49292.79966106919 122.49959297154064
1.799999999999999 49225.435656044545 133.96692525508624
1.8999999999999988 49160.418896818206 125.06599545573256
1.9999999999999987 49094.53148035278 128.84582490988208
2.0999999999999988 49031.66211879746 132.54107293141766
2.199999999999999 48953.65642590904 138.7955105504609
2.299999999999999 48889.27271546831 140.83141735638083
2.399999999999999 48821.039600215 141.3288470449983
2.499999999999999 48753.01255735732 148.2915475548207
2.599999999999999 48676.99134792371 143.0825840767515
2.6999999999999993 48604.624819562785 155.50046150288122
2.7999999999999994 48538.13774323455 154.5622395766478
2.8999999999999995 48466.77006387719 153.98968827221174
2.9999999999999996 48392.34594158044 147.6796953956796
3.0999999999999996 48331.331370769076 154.9816340371781
3.1999999999999997 48253.03419004797 155.21585485672216
3.3 48191.13495575584 160.0561920588873
3.4 48120.94046821906 162.84631252071537
3.5 48053.81766585046 160.6607469232606
3.6 47994.01459594604 160.6158480887373
3.7 47920.0441256574 169.46152128999475
3.8000000000000003 47849.76625729457 168.30925558051968
3.9000000000000004 47791.47300481311 167.19464456022763
4.0 47714.406250951804 170.00386914505816
4.1 47662.67425153795 171.6137836624044
4.199999999999999 47596.12671489855 172.55114603450042
4.299999999999999 47547.443396494426 170.37325122142235
4.399999999999999 47479.0427009809 168.21003594688392
4.499999999999998 47419.57038656998 170.7088503508959
4.599999999999998 47362.70639764805 172.4970983233784
4.6999999999999975 47307.67630494136 175.06813134313035
4.799999999999997 47252.29324345307 173.74441223321378
4.899999999999997 47198.70555742432 170.38164316203873
4.9999999999999964 47136.37636336325 179.0807058491026
5.099999999999996 47101.65486070144 178.2529881043114
5.199999999999996 47049.527820000934 177.33191596876333
5.299999999999995 47005.35464189157 177.03483780741774
5.399999999999995 46957.85866406423 171.79984060614768
5.499999999999995 46899.8926663979 170.6498756210837
5.599999999999994 46878.80082941489 173.54410414623038
5.699999999999994 46829.710382332094 172.81214941346022
5.799999999999994 46794.856874966266 174.89668202274441
5.899999999999993 46763.1430632682 169.46388380195597
5.999999999999993 46721.95504898729 175.14204147015013
6.0999999999999925 46666.67449000235 161.81521133698584
6.199999999999992 46632.414440750435 166.35569695705692
6.299999999999992 46611.74793796773 167.4177155928892
6.3999999999999915 46577.27472409836 164.1984742681461
6.499999999999991 46542.66441796795 157.04146732084712
6.599999999999991 46508.15587838657 160.3389064629909
6.69999999999999 46490.19982458022 159.26478217138225
6.79999999999999 46460.137760578174 160.83209922964062
6.89999999999999 46431.39293661818 159.69360637134264
6.999999999999989 46400.672109335734 155.53527437206984
7.099999999999989 46380.11979987675 157.52722839942234
7.199999999999989 46361.922228499214 157.73998270505894
7.299999999999988 46321.40630154008 153.8331935323813
7.399999999999988 46304.365820664985 152.62044352508636
7.499999999999988 46291.353209196204 148.74717794173526
7.599999999999987 46256.93911288463 149.72258663567837
7.699999999999987 46248.90402018093 147.3728563686991
7.7999999999999865 46222.43824372185 148.36032282288178
7.899999999999986 46203.93434364343 142.9395119615321
7.999999999999986 46186.0068848212 142.4337583051547
