# Rounds: 10000, repetitions: 1000
# Good arm ~ N(5.0,0.0), 16 bad arm(s) ~ N(3.0,0.0)
# Observation noise range from 0.5 to 8.0 with step size 0.1

# Observation noise | mean | standard deviation

0.5 49966.39600000003 6.071577064325921
0.6 49946.59200000005 4.652653348701535
0.7 49937.71999999996 3.2870053855149877
0.7999999999999999 49924.12000000009 4.406020087676996
0.8999999999999999 49906.454000000056 3.9121847079590952
0.9999999999999999 49889.84400000002 4.4320770872478175
1.0999999999999999 49870.58400000003 4.619987909972119
1.1999999999999997 49850.68399999994 4.927923338327054
1.2999999999999996 49829.46599999991 5.321575252043608
1.3999999999999995 49806.972000000016 5.647575684407568
1.4999999999999993 49783.46599999997 5.852614552240476
1.5999999999999992 49758.83199999994 6.414118561183347
1.699999999999999 49733.40199999993 6.668047604723477
1.799999999999999 49707.13600000005 6.978122827680669
1.8999999999999988 49679.954000000005 7.4423970112640365
1.9999999999999987 49652.01000000003 7.8784497186926865
2.0999999999999988 49622.60400000001 7.992187376373219
2.199999999999999 49592.75999999998 8.706905891888937
2.299999999999999 49562.23399999997 8.860685964176499
2.399999999999999 49530.19799999998 9.290377124051846
2.499999999999999 49497.80199999992 9.942416589926568
2.599999999999999 49465.434 10.430169338626825
2.6999999999999993 49432.14799999997 10.159986285488896
2.7999999999999994 49397.503999999964 11.386115563598775
2.8999999999999995 49362.307999999946 11.45199913920212
2.9999999999999996 49326.51000000005 10.999494937900096
3.0999999999999996 49289.81199999997 11.995522020677202
3.1999999999999997 49252.50799999999 12.59414739267996
3.3 49214.40599999995 12.967780354684104
3.4 49176.55000000007 13.542263211623501
3.5 49138.05000000002 13.827389366641023
3.6 49098.771999999946 14.788330220505214
3.7 49058.651999999995 14.776238805366823
3.8000000000000003 49017.67800000006 14.644274334045152
3.9000000000000004 48976.47399999994 15.011751286131698
4.0 48935.03199999997 15.018406324524845
4.1 48893.535999999964 15.950395578766129
4.199999999999999 48849.765999999974 17.108768335387143
4.299999999999999 48807.10799999995 16.12129747359789
4.399999999999999 48763.94799999999 17.422653209108287
4.499999999999998 48719.168 17.55790579927054
4.599999999999998 48675.62000000003 16.726965994805877
4.6999999999999975 48630.216 17.84196400847383
4.799999999999997 48586.46799999998 19.463807844710463
4.899999999999997 48540.25799999999 19.364204306100714
4.9999999999999964 48494.162000000004 19.24765513584
5.099999999999996 48446.73599999998 19.97080712282651
5.199999999999996 48401.049999999916 20.208163446238167
5.299999999999995 48352.356000000036 20.930727635688157
5.399999999999995 48303.84800000004 20.570659883631652
5.499999999999995 48257.951999999976 21.743009323790705
5.599999999999994 48209.60599999994 20.772584438732128
5.699999999999994 48159.358 21.651434608834176
5.799999999999994 48110.914 22.02038831404877
5.899999999999993 48060.84399999996 22.842097658171095
5.999999999999993 48011.83600000004 23.621072352013343
6.0999999999999925 47962.64199999996 23.567929125896757
6.199999999999992 47912.46000000001 23.956508808971204
6.299999999999992 47860.747999999985 23.625720532306985
6.3999999999999915 47809.964000000036 24.388060223836373
6.499999999999991 47759.44800000004 24.61766287293177
6.599999999999991 47707.814 26.627550214588492
6.69999999999999 47655.866000000016 25.72196850288992
6.79999999999999 47604.261999999966 26.851226123667853
6.89999999999999 47553.51400000002 26.597428958965654
6.999999999999989 47499.987999999976 27.71598874353982
7.099999999999989 47446.958000000006 26.78057944547565
7.199999999999989 47394.47399999992 28.81009103327075
7.299999999999988 47340.59000000009 29.17449315842622
7.399999999999988 47287.87199999995 29.68071024353299
7.499999999999988 47232.132000000056 29.855148733608807
7.599999999999987 47179.44399999997 29.037045545544178
7.699999999999987 47124.854 30.122052088495405
7.7999999999999865 47072.789999999964 31.59832834746735
7.899999999999986 47018.687999999966 30.864206700565706
7.999999999999986 46963.22799999997 31.020739873547452
