# Rounds: 50, repetitions: 1000
# Good arm ~ N(5.0,1.0), 16 bad arm(s) ~ N(3.0,1.0)
# Observation noise range from 0.5 to 8.0 with step size 0.1

# Observation noise | mean | standard deviation

0.5 210.39091258229186 15.775248697121931
0.6 208.5870015319607 14.927787135137962
0.7 206.0548798608665 15.91075224703127
0.7999999999999999 203.6571504930877 16.216757281635953
0.8999999999999999 201.58006029880028 15.690708234924847
0.9999999999999999 198.96193491251975 16.25231261039886
1.0999999999999999 195.7025020207265 16.62726304312888
1.1999999999999997 194.16284077007523 16.192268877787342
1.2999999999999996 191.96056119165254 16.21915949440093
1.3999999999999995 188.44488795031558 16.330966922449885
1.4999999999999993 186.75298739797324 16.60831566390722
1.5999999999999992 184.78777675784957 15.925967816658064
1.699999999999999 182.8574034472826 15.973009380458311
1.799999999999999 180.83936873116195 15.567569115996735
1.8999999999999988 179.92496173193905 15.401700781893625
1.9999999999999987 177.9001150160938 15.509668481746223
2.0999999999999988 176.46769009108925 14.151497899289398
2.199999999999999 175.04937393258842 14.08322806121406
2.299999999999999 173.51880995903556 13.89022186785807
2.399999999999999 172.96227388429435 13.858659802839604
2.499999999999999 171.40542845694355 13.258227308776432
2.599999999999999 171.32950666217909 12.710824428851023
2.6999999999999993 170.00856958135083 12.419539952621177
2.7999999999999994 168.90890592926908 12.090111920767137
2.8999999999999995 167.59952942806055 11.69012012145254
2.9999999999999996 167.33980001176465 11.9029698705296
3.0999999999999996 166.70726929417404 11.464957410016615
3.1999999999999997 166.80965892766235 11.117992808599181
3.3 166.3601367318941 11.09087713246172
3.4 165.3187179526234 10.70876465480871
3.5 165.2097587022335 10.556333774016062
3.6 164.45880995890587 10.33715736273959
3.7 164.53629269061116 10.89900204097143
3.8000000000000003 163.71755418770982 10.111503203254557
3.9000000000000004 164.15540237003455 10.205785580671714
4.0 163.9612624677255 9.972701904308918
4.1 163.07485536933353 9.407089707854318
4.199999999999999 162.89446420667753 9.719071384476702
4.299999999999999 162.64373838438962 9.478621345483502
4.399999999999999 162.70488215531685 9.254885415735954
4.499999999999998 162.22233142388941 9.297794558986464
4.599999999999998 161.90135644066925 9.328759004487733
4.6999999999999975 161.75675939477796 9.178573682847492
4.799999999999997 161.93380272764944 9.082540384423643
4.899999999999997 161.86191551426586 9.140702470721122
4.9999999999999964 161.97987227128635 8.665620406324761
5.099999999999996 161.39997740615968 8.839915426243437
5.199999999999996 160.63642151146087 9.05293365546925
5.299999999999995 160.9363197568068 9.029113025261044
5.399999999999995 161.44839619522963 8.924825838026212
5.499999999999995 160.56765140275434 8.825855327174065
5.599999999999994 161.203152142021 8.651460564676622
5.699999999999994 160.63280828590882 8.648137926087454
5.799999999999994 160.98344349138102 8.603954021643457
5.899999999999993 160.6962400033885 8.676880709172599
5.999999999999993 160.74073983245998 8.501280259415513
6.0999999999999925 160.58525944667812 8.682687668417348
6.199999999999992 160.1740325101002 8.510762263281102
6.299999999999992 160.42887919872376 8.522826723936314
6.3999999999999915 160.58402872926374 8.52884494172755
6.499999999999991 160.63097688405492 8.50921549353876
6.599999999999991 160.18688389826823 8.625168334687928
6.69999999999999 160.08518688247736 8.070590196620063
6.79999999999999 160.67989902731523 8.294281718821741
6.89999999999999 159.6901878798099 8.673573498878245
6.999999999999989 159.68801216932619 8.028531276441832
7.099999999999989 159.65252845651642 7.979144360564682
7.199999999999989 160.55550290739495 8.093321393121714
7.299999999999988 159.55266847704632 8.308142451927445
7.399999999999988 159.76345102942466 8.146939778386486
7.499999999999988 159.67452386840168 8.407976321931441
7.599999999999987 159.6430020532217 7.822247890196566
7.699999999999987 159.8162151664592 7.980707359888686
7.7999999999999865 159.63214140321145 8.37059685383862
7.899999999999986 159.9697353240321 8.275017962893264
7.999999999999986 159.63002470483292 8.049513770697253
