# Rounds: 50, repetitions: 1000
# Good arm ~ N(5.0,0.0), 16 bad arm(s) ~ N(0.5,0.0)
# Observation noise range from 0.5 to 8.0 with step size 0.1

# Observation noise | mean | standard deviation

0.5 184.49399999999983 3.840861389872881
0.6 184.36800000000008 4.159612767840111
0.7 184.0529999999997 4.297808995542061
0.7999999999999999 184.125 4.260519572426235
0.8999999999999999 183.76950000000025 4.621685810365053
0.9999999999999999 183.18 5.448282645364854
1.0999999999999999 182.50049999999987 6.187409294994446
1.1999999999999997 181.69049999999984 6.518661879765084
1.2999999999999996 180.33600000000027 8.138417403760837
1.3999999999999995 179.25600000000006 8.398571307073603
1.4999999999999993 176.88899999999998 9.595011372752138
1.5999999999999992 173.91450000000006 10.418252239686328
1.699999999999999 170.4809999999998 11.795964724590506
1.799999999999999 166.18349999999998 12.48823581550991
1.8999999999999988 161.8589999999997 14.310360072528082
1.9999999999999987 156.9990000000002 14.473682547523575
2.0999999999999988 152.3145000000002 14.513906891090471
2.199999999999999 146.9190000000002 15.673835143579504
2.299999999999999 143.02199999999988 16.137004645191084
2.399999999999999 136.62749999999994 17.057518949211307
2.499999999999999 130.48049999999998 18.938784208530866
2.599999999999999 127.59149999999994 17.879682905768053
2.6999999999999993 121.45350000000002 18.549425029334905
2.7999999999999994 116.25149999999998 20.08282394404641
2.8999999999999995 111.01799999999982 19.49947192632163
2.9999999999999996 106.419 20.15062000253309
3.0999999999999996 102.54449999999997 20.492100818265236
3.1999999999999997 99.84900000000002 19.699867608280602
3.3 95.91599999999985 20.156865908251767
3.4 90.60149999999993 20.101891298675934
3.5 87.48750000000013 19.930474594639456
3.6 83.6895000000001 19.571200055735517
3.7 79.99950000000013 19.58385245622084
3.8000000000000003 77.56949999999998 19.76532539165087
3.9000000000000004 75.50849999999991 18.35474255674329
4.0 73.12349999999996 18.9057643504747
4.1 70.266 17.928515713122387
4.199999999999999 69.22650000000004 18.21432703833603
4.299999999999999 66.5625 17.103446191385572
4.399999999999999 64.74449999999993 17.02967937835969
4.499999999999998 62.90849999999999 17.522397443334178
4.599999999999998 62.1345 16.205053641179784
4.6999999999999975 59.65500000000008 15.484015297387504
4.799999999999997 59.452499999999986 16.00040645598598
4.899999999999997 58.597500000000025 14.969546789434936
4.9999999999999964 56.98200000000004 14.89965354213564
5.099999999999996 55.92450000000007 14.164486663216216
5.199999999999996 54.25949999999998 14.341010226770063
5.299999999999995 53.86799999999994 14.271203286452186
5.399999999999995 53.18399999999999 13.095978338736229
5.499999999999995 51.83850000000003 12.976635188322524
5.599999999999994 52.041 13.034462636266072
5.699999999999994 51.77999999999993 13.178914362867088
5.799999999999994 49.714499999999965 11.930405455152162
5.899999999999993 49.65599999999997 12.377979575778042
5.999999999999993 49.19700000000001 11.808646625889706
6.0999999999999925 49.403999999999975 11.496758650135277
6.199999999999992 48.3375 12.092024677894562
6.299999999999992 48.571499999999965 11.801458052383301
6.3999999999999915 48.56250000000006 11.663678027755015
6.499999999999991 48.14399999999999 11.198735449847689
6.599999999999991 48.139499999999984 11.730105930260562
6.69999999999999 47.16749999999991 11.36921073349874
6.79999999999999 46.37099999999993 10.700741323145092
6.89999999999999 45.993000000000045 11.184343545355759
6.999999999999989 45.86249999999997 10.577297526919264
7.099999999999989 44.939999999999934 10.317526416314697
7.199999999999989 45.60150000000001 10.32863148623177
7.299999999999988 45.173999999999985 10.564105467304095
7.399999999999988 45.480000000000054 10.355570377233587
7.499999999999988 45.31350000000006 10.36358391781635
7.599999999999987 44.481000000000066 10.476301441438782
7.699999999999987 44.336999999999996 9.949267255377071
7.7999999999999865 44.638499999999965 10.042131853454316
7.899999999999986 43.931999999999974 9.517534316169257
7.999999999999986 44.0715 9.981270636222305
