# Rounds: 10000, repetitions: 1000
# Good arm ~ N(5.0,0.0), 1 bad arm(s) ~ N(3.5,0.0)
# Observation noise range from 0.5 to 4.0 with step size 0.1

# Observation noise | mean | standard deviation

0.5 49998.97600000002 5.036297081019737
0.6 49998.356499999914 4.929904837997549
0.7 49997.60650000005 4.557925233308689
0.7999999999999999 49996.39149999999 4.681013740595069
0.8999999999999999 49995.46600000001 3.8230170624076143
0.9999999999999999 49994.162500000064 3.691472703504774
1.0999999999999999 49992.56650000004 3.345522421128021
1.1999999999999997 49991.10700000001 3.382305573272575
1.2999999999999996 49989.42400000001 3.243338286895676
1.3999999999999995 49987.6165 2.6449335385644956
1.4999999999999993 49985.55249999999 2.803543044721022
1.5999999999999992 49983.42099999998 2.6410668742449843
1.699999999999999 49981.34950000005 2.276352681710716
1.799999999999999 49978.95249999997 2.5582295222063713
1.8999999999999988 49976.61099999999 2.286133286885385
1.9999999999999987 49974.139000000076 2.454323267767017
2.0999999999999988 49971.65350000001 2.2469393597706246
2.199999999999999 49968.85300000001 2.3844447103207336
2.299999999999999 49966.2355 2.57165377785449
2.399999999999999 49963.58349999998 2.4401295010679327
2.499999999999999 49960.48900000005 2.600123004713375
2.599999999999999 49957.49649999994 2.7061154466893877
2.6999999999999993 49954.5325 2.720863253977845
2.7999999999999994 49951.588000000025 2.7098153256447177
2.8999999999999995 49948.397499999955 3.0383342846410417
2.9999999999999996 49945.080999999955 3.0657524097418585
3.0999999999999996 49941.836500000005 3.1924456862191963
3.1999999999999997 49938.50350000006 3.231823391281233
3.3 49935.02950000002 3.220287254267865
3.4 49931.57350000005 3.451269188140672
3.5 49927.87300000005 3.433826169473642
3.6 49924.49650000006 3.6321385133526864
3.7 49920.716499999995 3.865206018774082
3.8000000000000003 49917.01899999997 3.753762076867615
3.9000000000000004 49912.91649999996 3.8431168727086042
4.0 49909.26849999998 4.143528276309542
