# Rounds: 10000, repetitions: 1000
# Good arm ~ N(5.0,0.0), 1 bad arm(s) ~ N(0.1,0.0)
# Observation noise range from 0.5 to 4.0 with step size 0.1

# Observation noise | mean | standard deviation

0.5 49999.20820000006 2.3657873339988202
0.6 49998.968099999984 3.0046830965192655
0.7 49998.88969999999 2.8836711791512006
0.7999999999999999 49999.03180000003 2.6783544093978175
0.8999999999999999 49998.7231 2.982202192997243
0.9999999999999999 49998.87990000004 2.8119696234421463
1.0999999999999999 49998.340900000025 3.3898566810876725
1.1999999999999997 49997.89500000005 3.387661619945142
1.2999999999999996 49996.59650000004 3.2213809220649496
1.3999999999999995 49995.18040000002 2.866924326711717
1.4999999999999993 49994.61690000002 2.1860702855324003
1.5999999999999992 49994.13180000003 2.6603470086059344
1.699999999999999 49993.53399999999 2.959392167657418
1.799999999999999 49992.41189999999 3.2119067132660724
1.8999999999999988 49991.27510000003 2.939014766514337
1.9999999999999987 49990.17260000004 2.73539240541638
2.0999999999999988 49989.07990000001 2.751489903069042
2.199999999999999 49988.13909999994 2.9107479526150017
2.299999999999999 49986.830799999945 3.0723005045729432
2.399999999999999 49985.424500000016 2.9454516521989347
2.499999999999999 49984.34649999996 3.041002375113917
2.599999999999999 49982.896099999954 3.191789828969835
2.6999999999999993 49981.81320000001 3.109004932719742
2.7999999999999994 49980.19129999996 3.2111284084664367
2.8999999999999995 49978.745800000026 3.168956396773182
2.9999999999999996 49977.00140000005 3.1779234158870016
3.0999999999999996 49975.56080000006 3.2590650292484504
3.1999999999999997 49974.16920000008 3.5172691882408804
3.3 49972.52769999992 3.541562561268629
3.4 49970.729400000055 3.6816205630090972
3.5 49969.07810000006 3.6272810144177337
3.6 49967.29450000002 3.828858826061043
3.7 49965.785299999945 3.9004265455504705
3.8000000000000003 49964.14870000005 3.999123816700516
3.9000000000000004 49962.03680000003 3.8917440089806887
4.0 49960.33650000001 4.036046012798328
