# Rounds: 10000, repetitions: 1000
# Good arm ~ N(5.0,0.0), 1 bad arm(s) ~ N(1.2,0.0)
# Observation noise range from 0.5 to 4.0 with step size 0.1

# Observation noise | mean | standard deviation

0.5 49999.50899999999 3.5030658672743957
0.6 49999.48239999998 3.4083701716830594
0.7 49999.15939999998 3.988611369969746
0.7999999999999999 49999.11380000003 3.917248319214118
0.8999999999999999 49999.056800000006 3.5824806947030226
0.9999999999999999 49997.939600000034 3.763375457594699
1.0999999999999999 49996.93259999997 3.088377456742045
1.1999999999999997 49996.48420000003 2.6692461923240973
1.2999999999999996 49995.8458 3.322520353813358
1.3999999999999995 49995.264400000015 3.056113949523943
1.4999999999999993 49994.025599999964 3.044978905762518
1.5999999999999992 49992.832400000036 2.802070991577879
1.699999999999999 49992.02679999997 2.9513237829948076
1.799999999999999 49990.8222 3.218481907014903
1.8999999999999988 49989.48840000006 2.843242773571983
1.9999999999999987 49988.507999999914 2.6241383542233607
2.0999999999999988 49987.227400000054 2.608312199975243
2.199999999999999 49985.93539999999 2.6902610178850397
2.299999999999999 49984.56740000008 2.5921914853466697
2.399999999999999 49982.88780000004 3.0892385072308786
2.499999999999999 49981.45139999996 3.037219574338249
2.599999999999999 49979.996000000014 2.864323366581212
2.6999999999999993 49978.32780000002 2.8770096183952596
2.7999999999999994 49976.62540000003 2.9618520232113954
2.8999999999999995 49975.05980000002 2.935991145082359
2.9999999999999996 49973.21680000002 3.206930333225984
3.0999999999999996 49971.62460000005 3.2078474285929763
3.1999999999999997 49970.0096 3.4148102097740067
3.3 49968.102000000035 3.4425582358497935
3.4 49966.20580000006 3.453916023285219
3.5 49964.112 3.4977493120946677
3.6 49962.15500000001 3.67306771329237
3.7 49960.201799999915 3.779937127080929
3.8000000000000003 49958.04340000003 3.8351198918131026
3.9000000000000004 49956.02939999999 3.9441516162500982
4.0 49954.0002 3.957921816446715
