# Rounds: 10000, repetitions: 1000
# Good arm ~ N(5.0,0.0), 1 bad arm(s) ~ N(4.1,0.0)
# Observation noise range from 0.5 to 4.0 with step size 0.1

# Observation noise | mean | standard deviation

0.5 49998.491199999975 4.743602462719999
0.6 49997.26450000006 4.192365164876676
0.7 49995.93700000002 3.75705822239758
0.7999999999999999 49994.380900000055 2.981646425283346
0.8999999999999999 49992.33159999999 2.957568029419736
0.9999999999999999 49990.30929999999 2.3378214044102648
1.0999999999999999 49987.900000000016 2.1304738719163057
1.1999999999999997 49985.47359999999 1.95245874095617
1.2999999999999996 49982.72500000004 2.139872438734225
1.3999999999999995 49979.86569999994 1.8218651713846068
1.4999999999999993 49976.85070000004 1.9085025260380977
1.5999999999999992 49973.77809999998 1.8070849304749126
1.699999999999999 49970.401300000005 2.13441890313414
1.799999999999999 49967.18739999992 1.9096774879838754
1.8999999999999988 49963.79439999999 1.8683734796515485
1.9999999999999987 49960.07919999997 1.985131760895088
2.0999999999999988 49956.2524 2.156029383544901
2.199999999999999 49952.38419999999 2.2616466137337503
2.299999999999999 49948.488999999994 2.32377256178961
2.399999999999999 49944.42009999999 2.5161552072625213
2.499999999999999 49940.278299999954 2.5343207949865065
2.599999999999999 49935.93399999994 2.5801319890833003
2.6999999999999993 49931.32599999995 2.719658166121472
2.7999999999999994 49927.17969999989 2.7775515661665406
2.8999999999999995 49922.48079999994 2.868277946501865
2.9999999999999996 49917.92770000001 3.0187241353622944
3.0999999999999996 49912.88320000003 3.094471443320663
3.1999999999999997 49908.21579999994 3.3178333861715066
3.3 49903.31889999994 3.4840050345970344
3.4 49898.23840000003 3.446105204589341
3.5 49893.274900000004 3.5232447038577077
3.6 49888.114299999936 3.637515227053563
3.7 49882.68729999999 3.899437693352994
3.8000000000000003 49877.60049999991 3.8900053845607214
3.9000000000000004 49871.95389999991 3.9334077447563818
4.0 49866.86799999997 4.23514255160932
