# Rounds: 10000, repetitions: 1000
# Good arm ~ N(5.0,0.0), 1 bad arm(s) ~ N(1.5,0.0)
# Observation noise range from 0.5 to 4.0 with step size 0.1

# Observation noise | mean | standard deviation

0.5 49999.543499999985 3.5340270368372826
0.6 49999.613500000116 3.623050405976209
0.7 49999.50149999992 3.811860179496065
0.7999999999999999 49999.44199999993 3.8139457497691267
0.8999999999999999 49998.48999999999 4.205601869778774
0.9999999999999999 49997.43650000006 3.6206804715518297
1.0999999999999999 49996.66999999995 3.5497465685173912
1.1999999999999997 49996.47050000006 3.1787551390810465
1.2999999999999996 49995.79150000004 3.428926258362105
1.3999999999999995 49994.47200000001 3.2434913652168764
1.4999999999999993 49993.52350000009 2.7951763380439303
1.5999999999999992 49992.75350000002 2.5251463549889945
1.699999999999999 49991.50749999997 2.801346335477188
1.799999999999999 49990.22649999997 2.870921444404195
1.8999999999999988 49988.851000000046 2.881249833076007
1.9999999999999987 49987.69599999995 2.631826459041397
2.0999999999999988 49986.28200000004 2.8553684751935617
2.199999999999999 49984.96249999997 2.834850989052196
2.299999999999999 49983.47500000002 2.7650534389990304
2.399999999999999 49981.882500000014 2.659890743765366
2.499999999999999 49980.338999999985 2.900084393511614
2.599999999999999 49978.66949999996 3.011243486889968
2.6999999999999993 49977.056 3.3326371645395647
2.7999999999999994 49975.28500000005 3.1082851279180606
2.8999999999999995 49973.577000000005 3.185469858312633
2.9999999999999996 49971.592500000006 3.3220068451884996
3.0999999999999996 49969.99649999997 3.172901677495729
3.1999999999999997 49967.93499999995 3.3033599844986608
3.3 49966.30750000001 3.48415457221447
3.4 49964.09899999995 3.559757136501185
3.5 49962.233500000024 3.6206127363454303
3.6 49959.89899999996 3.753583406345016
3.7 49958.01600000005 3.8138943076322356
3.8000000000000003 49955.75500000001 3.8663838303928966
3.9000000000000004 49953.819499999954 3.684120314606027
4.0 49951.53750000002 3.9731762960985875
