# Rounds: 10000, repetitions: 1000
# Good arm ~ N(5.0,0.0), 1 bad arm(s) ~ N(1.7,0.0)
# Observation noise range from 0.5 to 4.0 with step size 0.1

# Observation noise | mean | standard deviation

0.5 49999.60120000002 3.953034915737003
0.6 49999.50219999999 3.7476926715449026
0.7 49999.28769999992 4.095430534296901
0.7999999999999999 49999.18539999996 3.9140319986527614
0.8999999999999999 49998.00729999994 4.028608493808977
0.9999999999999999 49997.18560000001 3.338712272664494
1.0999999999999999 49997.010700000035 3.4781277841513334
1.1999999999999997 49996.21209999997 3.9529342619479486
1.2999999999999996 49995.129699999954 3.5389620176209764
1.3999999999999995 49994.2387 2.9840772488370515
1.4999999999999993 49993.20250000003 2.994098925950173
1.5999999999999992 49992.199299999964 3.0731244041856995
1.699999999999999 49990.91229999996 2.7398513637600197
1.799999999999999 49989.72760000001 2.7378155295563555
1.8999999999999988 49988.569299999974 2.5329475583478405
1.9999999999999987 49987.13380000005 2.642567070241773
2.0999999999999988 49985.529999999984 2.7584105620505914
2.199999999999999 49984.11430000003 2.8645682504106165
2.299999999999999 49982.65240000005 2.710605397621887
2.399999999999999 49981.140999999974 2.9067659500349623
2.499999999999999 49979.7088 2.6187402239163755
2.599999999999999 49977.798099999956 3.043884298330443
2.6999999999999993 49975.979799999994 2.9926222193508254
2.7999999999999994 49974.277000000046 3.061647380854282
2.8999999999999995 49972.43890000001 3.088960742462757
2.9999999999999996 49970.703099999904 3.1192322773413963
3.0999999999999996 49968.85839999998 3.207356633831708
3.1999999999999997 49966.871799999964 3.158360334097615
3.3 49964.90830000007 3.263125664006171
3.4 49962.74679999998 3.3985909109770773
3.5 49960.57869999999 3.5197506950003223
3.6 49958.47990000002 3.7406280606731563
3.7 49956.407500000016 3.728637349823396
3.8000000000000003 49954.02490000003 3.740045177259215
3.9000000000000004 49951.62580000003 3.9089710173423247
4.0 49949.59299999999 4.142092216251602
