# Rounds: 10000, repetitions: 1000
# Good arm ~ N(5.0,0.0), 1 bad arm(s) ~ N(1.1,0.0)
# Observation noise range from 0.5 to 4.0 with step size 0.1

# Observation noise | mean | standard deviation

0.5 49999.313800000025 3.6190173869217914
0.6 49999.461999999956 3.360212348501619
0.7 49999.45419999996 3.2457013012494755
0.7999999999999999 49999.23189999997 3.6469346748355123
0.8999999999999999 49998.876999999935 3.736717015516299
0.9999999999999999 49998.32319999999 3.5097093640094505
1.0999999999999999 49997.012799999924 3.355896035069165
1.1999999999999997 49996.186000000016 3.0435221417003544
1.2999999999999996 49995.8389 3.1293529106880924
1.3999999999999995 49995.425500000005 3.0970165096835
1.4999999999999993 49994.22430000002 3.099119883780867
1.5999999999999992 49992.956800000065 2.941398576457057
1.699999999999999 49992.07150000003 2.6284646804895564
1.799999999999999 49991.037999999986 2.812654800546082
1.8999999999999988 49989.80559999999 3.0753319018137177
1.9999999999999987 49988.647300000055 2.8346301059999757
2.0999999999999988 49987.20039999999 3.0721617825269667
2.199999999999999 49986.10059999998 2.857454231424966
2.299999999999999 49984.821399999986 2.575654486929488
2.399999999999999 49983.296500000004 2.8507621076825735
2.499999999999999 49981.77940000006 3.1017053722460535
2.599999999999999 49980.32080000003 2.921037456080244
2.6999999999999993 49978.77640000003 2.9090454767136693
2.7999999999999994 49976.96290000002 3.0953052360799718
2.8999999999999995 49975.453600000066 3.1025397326690904
2.9999999999999996 49973.63619999997 3.3932084261684397
3.0999999999999996 49972.056700000016 3.2905992088301463
3.1999999999999997 49970.29390000008 3.4434561388501446
3.3 49968.45309999999 3.492974557775575
3.4 49966.7254 3.5961600641815448
3.5 49964.8222 3.6369787976810763
3.6 49962.83319999999 3.6072607460643655
3.7 49960.82470000005 3.750891773846092
3.8000000000000003 49958.742100000025 3.766300919021052
3.9000000000000004 49956.90130000004 3.831293139022602
4.0 49954.68999999997 4.220605823044603
