# Rounds: 10000, repetitions: 1000
# Good arm ~ N(5.0,0.0), 1 bad arm(s) ~ N(4.7,0.0)
# Observation noise range from 0.5 to 4.0 with step size 0.1

# Observation noise | mean | standard deviation

0.5 49994.881300000045 1.0922148338321893
0.6 49991.41659999989 0.9754054827898189
0.7 49987.52259999992 0.8872183476451638
0.7999999999999999 49983.21430000002 0.9311350721158486
0.8999999999999999 49978.561299999965 0.9439403229738107
0.9999999999999999 49973.58340000001 0.999491582469276
1.0999999999999999 49968.386200000066 1.0757726743367466
1.1999999999999997 49962.78999999998 1.1805480480261645
1.2999999999999996 49956.97419999998 1.3481587042700465
1.3999999999999995 49950.76029999994 1.4781470930982883
1.4999999999999993 49944.525099999984 1.4995227769412203
1.5999999999999992 49937.99380000002 1.6063131082732622
1.699999999999999 49931.212599999984 1.7375097640564967
1.799999999999999 49924.245699999956 1.8676535116693709
1.8999999999999988 49917.07959999992 1.9788379518412822
1.9999999999999987 49909.562800000036 2.1053476313104325
2.0999999999999988 49901.98299999985 2.3074477925466192
2.199999999999999 49894.52259999994 2.280932241849206
2.299999999999999 49886.386899999925 2.407100438814159
2.399999999999999 49878.31780000002 2.511144959779014
2.499999999999999 49870.22799999997 2.56378801951784
2.599999999999999 49861.82649999992 2.692883096122422
2.6999999999999993 49853.2369 2.8786863714631177
2.7999999999999994 49844.89959999991 2.9834041865902288
2.8999999999999995 49835.99769999995 3.259673324154826
2.9999999999999996 49827.04300000003 3.2439534883005456
3.0999999999999996 49818.18459999994 3.394835452237678
3.1999999999999997 49808.841400000005 3.641167964290657
3.3 49799.78979999993 3.71797246887469
3.4 49790.69019999993 3.688428997348807
3.5 49781.2209999999 3.949901355826357
3.6 49771.89219999997 4.131327513893344
3.7 49762.29369999989 4.361074326275856
3.8000000000000003 49752.5913999998 4.510997133138523
3.9000000000000004 49742.65089999998 4.631249038616144
4.0 49733.11449999987 4.827863711627214
