# Rounds: 50, repetitions: 1000
# Good arm ~ N(5.0,0.0), 4 bad arm(s) ~ N(3.7,0.0)
# Observation noise range from 0.5 to 4.0 with step size 0.1

# Observation noise | mean | standard deviation

0.5 245.17589999999976 5.742743969418971
0.6 243.85249999999994 6.634385338433303
0.7 242.96459999999996 6.2397934149987355
0.7999999999999999 241.37729999999962 6.905407979936385
0.8999999999999999 240.43090000000004 6.210541523572313
0.9999999999999999 239.1087999999999 6.325471852293239
1.0999999999999999 237.36810000000006 6.748362229666003
1.1999999999999997 236.51270000000002 6.427919325633822
1.2999999999999996 234.87470000000016 6.942554931650053
1.3999999999999995 233.8633 6.865897148490747
1.4999999999999993 232.40470000000022 7.125836474088877
1.5999999999999992 231.22429999999977 7.041010960461959
1.699999999999999 229.33670000000018 7.622513090563761
1.799999999999999 228.39549999999963 7.553944123557019
1.8999999999999988 226.87189999999998 8.165892614539558
1.9999999999999987 225.59400000000008 7.850328123820781
2.0999999999999988 224.76849999999985 7.420775273221513
2.199999999999999 223.29559999999998 8.020222229128361
2.299999999999999 222.32189999999974 7.8216832663512434
2.399999999999999 221.64979999999977 8.364333926980784
2.499999999999999 220.13529999999983 8.26770214804626
2.599999999999999 219.27989999999994 7.996988045996288
2.6999999999999993 218.44399999999993 8.079709506269776
2.7999999999999994 217.4313000000001 8.23372361173939
2.8999999999999995 216.8371999999999 8.255111327112614
2.9999999999999996 215.82840000000002 7.889555026648751
3.0999999999999996 214.74289999999988 8.168655735586274
3.1999999999999997 213.87450000000013 8.123577553163544
3.3 213.40520000000004 7.852954976431597
3.4 212.5511 8.131571880716008
3.5 212.19230000000005 7.830516438760462
3.6 211.9569999999996 7.517253494468593
3.7 211.09899999999968 7.852428900642122
3.8000000000000003 210.65179999999998 7.842717959035957
3.9000000000000004 210.2604999999999 7.46405398237793
4.0 209.46099999999976 7.464090812125203
