# Rounds: 50, repetitions: 1000
# Good arm ~ N(5.0,1.0), 4 bad arm(s) ~ N(1.6,1.0)
# Observation noise range from 0.5 to 4.0 with step size 0.1

# Observation noise | mean | standard deviation

0.5 238.61496471723692 8.674964371847572
0.6 238.06238659105205 9.241838037489208
0.7 238.04711785362454 8.700077162969992
0.7999999999999999 237.98764878764013 8.91879417883763
0.8999999999999999 237.31678212759016 9.056676233939639
0.9999999999999999 236.56454003980093 9.37894255061952
1.0999999999999999 235.38338991054496 9.68913729721148
1.1999999999999997 234.76112901867847 10.089617909171462
1.2999999999999996 234.0222724276247 10.38701418264607
1.3999999999999995 232.92006132848434 10.030994516117675
1.4999999999999993 231.97852262762697 10.621755692685397
1.5999999999999992 230.42790654613813 10.871165635610176
1.699999999999999 229.40995271926423 10.865598098918875
1.799999999999999 227.4833403695207 10.904697300665084
1.8999999999999988 226.12403695528258 11.859132675464156
1.9999999999999987 224.66533574291753 11.50426274778965
2.0999999999999988 222.31702159906723 12.187022681391403
2.199999999999999 220.69206959061503 12.412522393142988
2.299999999999999 219.3550459411056 12.659478093974982
2.399999999999999 217.024376611938 12.685245390013115
2.499999999999999 215.7425355940474 13.312130035718882
2.599999999999999 214.1312668945451 13.818840789253779
2.6999999999999993 211.283478217694 13.631377958697508
2.7999999999999994 209.76381108780993 14.525679862357578
2.8999999999999995 207.45193767940484 14.44969580873291
2.9999999999999996 205.69354612042113 15.138778247240127
3.0999999999999996 203.76027130787483 14.685273640480135
3.1999999999999997 202.72658094418108 16.187453549659114
3.3 200.06662686722484 15.233337464804698
3.4 197.04709385533542 16.059488670839652
3.5 195.73152715150025 15.942960137511937
3.6 192.11023070270363 16.81956724337119
3.7 191.68018687113968 15.979984295092862
3.8000000000000003 188.99929253594743 17.190983443024525
3.9000000000000004 185.98156652417686 17.689386528539202
4.0 185.184932542336 16.94083876634992
