# Rounds: 50, repetitions: 1000
# Good arm ~ N(5.0,0.0), 4 bad arm(s) ~ N(3.2,0.0)
# Observation noise range from 0.5 to 4.0 with step size 0.1

# Observation noise | mean | standard deviation

0.5 243.2747999999999 7.006360970864561
0.6 243.4368000000002 6.3722940839145386
0.7 242.56920000000002 6.492031872829804
0.7999999999999999 241.8851999999999 6.349855244147033
0.8999999999999999 240.9653999999998 6.275251518594423
0.9999999999999999 239.41560000000004 6.813746677400317
1.0999999999999999 237.8657999999999 7.02296749475836
1.1999999999999997 236.83620000000002 6.724554200033565
1.2999999999999996 235.5725999999999 6.725381773550088
1.3999999999999995 234.2675999999998 7.225108472018419
1.4999999999999993 232.87799999999996 7.61929981886327
1.5999999999999992 231.49919999999983 7.069278184797481
1.699999999999999 229.47599999999986 8.11916651294115
1.799999999999999 227.87400000000017 8.012105705608072
1.8999999999999988 226.84980000000022 8.116185830328964
1.9999999999999987 225.6041999999999 8.132704546658731
2.0999999999999988 223.5342000000003 8.914665536161259
2.199999999999999 222.3156 9.22634934099951
2.299999999999999 220.61280000000005 8.976217947924846
2.399999999999999 219.1206 9.384837282063597
2.499999999999999 217.7291999999999 9.046109631187274
2.599999999999999 216.6473999999999 9.478068739306911
2.6999999999999993 215.5007999999999 9.768597896569663
2.7999999999999994 213.4325999999999 10.025106483225008
2.8999999999999995 211.97459999999995 10.13822165758762
2.9999999999999996 210.62820000000013 9.962611022135613
3.0999999999999996 209.5428000000001 10.05113692641352
3.1999999999999997 207.7211999999999 10.067863349908594
3.3 206.58539999999996 10.084463458372165
3.4 205.75380000000007 10.701672362362393
3.5 204.58200000000025 10.258481000247176
3.6 203.23920000000012 10.281938612033322
3.7 202.63079999999985 10.448198706773173
3.8000000000000003 201.17640000000017 10.44311168290474
3.9000000000000004 200.04779999999985 10.285832660194005
4.0 199.776 10.399105990680429
