# Rounds: 50, repetitions: 1000
# Good arm ~ N(5.0,1.0), 4 bad arm(s) ~ N(0.2,1.0)
# Observation noise range from 0.5 to 4.0 with step size 0.1

# Observation noise | mean | standard deviation

0.5 234.81047090380696 7.632875776444341
0.6 234.50937571923015 8.048686478991113
0.7 234.89337336197178 7.958073398388542
0.7999999999999999 234.50646039980268 8.198760257526528
0.8999999999999999 234.45713462325782 8.11901857900481
0.9999999999999999 234.21910084121512 8.04902627375606
1.0999999999999999 233.7856050696083 8.366718817327019
1.1999999999999997 232.64257478841014 8.322439186242528
1.2999999999999996 232.30674329385388 8.872925805385183
1.3999999999999995 231.86373039034754 9.262558963752978
1.4999999999999993 231.09550460136794 9.31248243277395
1.5999999999999992 229.29667963442756 10.03283977943583
1.699999999999999 228.50072346957398 10.218256195634375
1.799999999999999 227.2814375055609 10.320511091526793
1.8999999999999988 226.46403839360244 10.47861713604992
1.9999999999999987 224.7418767222058 10.942697499315683
2.0999999999999988 222.8737887603865 11.489759372119433
2.199999999999999 220.79619343355802 11.877087150611315
2.299999999999999 219.3404548361659 12.07240202244651
2.399999999999999 217.1605880547204 12.179906631113694
2.499999999999999 215.28324941207882 13.457871564568165
2.599999999999999 213.41887537481705 12.928725246179555
2.6999999999999993 212.03073908342844 13.634196593369394
2.7999999999999994 209.79618899424383 13.889968879507434
2.8999999999999995 207.4962565047998 13.587086190365211
2.9999999999999996 205.2309649760619 14.543467745767718
3.0999999999999996 202.91465348124783 14.924370556689123
3.1999999999999997 200.1029720230971 14.853955626958825
3.3 198.30734570641738 15.303546485378645
3.4 195.18254176635864 15.991082710939844
3.5 194.07848840185295 15.811627266436144
3.6 192.1984800962413 15.557567519651547
3.7 187.74722459529653 16.278932384807256
3.8000000000000003 185.0086717195294 16.809787446679785
3.9000000000000004 183.68862128200914 17.98441751782525
4.0 180.2263909526262 17.352042076380787
