# Rounds: 50, repetitions: 1000
# Good arm ~ N(5.0,1.0), 4 bad arm(s) ~ N(1.3,1.0)
# Observation noise range from 0.5 to 4.0 with step size 0.1

# Observation noise | mean | standard deviation

0.5 237.9824464329192 8.538742286600117
0.6 237.6436707280778 8.812154635821216
0.7 237.2979644348354 8.73558020436781
0.7999999999999999 237.3926268109224 8.255406883377134
0.8999999999999999 236.72853235578876 8.565686891426864
0.9999999999999999 236.08011361440603 9.508032976008828
1.0999999999999999 235.8274130351155 8.925669677388159
1.1999999999999997 234.55283417916695 9.615155106354038
1.2999999999999996 233.73821540765735 10.069930640371256
1.3999999999999995 232.87128208651072 9.827948895150886
1.4999999999999993 231.04394119615273 10.479056888828623
1.5999999999999992 230.30902244314015 10.764412114196835
1.699999999999999 229.14794934160722 11.328012991898765
1.799999999999999 227.94783388157154 10.47898060890774
1.8999999999999988 226.57598393942285 11.284399200916031
1.9999999999999987 223.7274397429657 12.159551485611905
2.0999999999999988 222.9938921131115 11.617120384205522
2.199999999999999 221.3209253362387 12.131807584060077
2.299999999999999 219.33783472660667 12.10062039735725
2.399999999999999 217.71152215365552 13.514210356916955
2.499999999999999 215.78563086114167 13.098198616422412
2.599999999999999 213.12224037295897 13.44328752217045
2.6999999999999993 211.10600127855577 13.791017387843405
2.7999999999999994 210.4199802961871 14.334386979877173
2.8999999999999995 207.22324214586686 14.767763423965503
2.9999999999999996 205.53600291592272 14.77578334717186
3.0999999999999996 203.6876571804803 14.473802705997292
3.1999999999999997 201.61026937984678 15.59858780589832
3.3 199.09390093731935 15.587619201823122
3.4 195.81422873250295 16.15652678446021
3.5 195.6446569887544 15.96386651199309
3.6 193.31018381610323 15.927281120038593
3.7 190.78930975783794 17.346697739512408
3.8000000000000003 188.6020970427498 17.278527534185287
3.9000000000000004 186.58877830560175 16.544862425501524
4.0 184.47834099728004 17.507757899117095
