# Rounds: 50, repetitions: 1000
# Good arm ~ N(5.0,0.0), 4 bad arm(s) ~ N(3.0,0.0)
# Observation noise range from 0.5 to 4.0 with step size 0.1

# Observation noise | mean | standard deviation

0.5 243.2460000000001 5.664589267685016
0.6 243.3460000000002 5.567340413454085
0.7 242.42000000000002 6.146004667535929
0.7999999999999999 241.9239999999998 6.334220263485166
0.8999999999999999 240.994 5.915315287873926
0.9999999999999999 239.87599999999998 6.257777863090384
1.0999999999999999 238.218 7.059342059307669
1.1999999999999997 237.46 6.781916719806739
1.2999999999999996 235.86000000000024 6.781916719806769
1.3999999999999995 234.8279999999998 6.1813125325147995
1.4999999999999993 233.1340000000001 7.228713460796365
1.5999999999999992 231.62200000000018 7.041214007164871
1.699999999999999 230.1299999999998 7.105602690102335
1.799999999999999 228.24799999999962 8.328256471546416
1.8999999999999988 226.54399999999993 8.077209004681299
1.9999999999999987 225.4400000000004 8.067681667461047
2.0999999999999988 223.89999999999984 8.512958972676326
2.199999999999999 221.9679999999999 8.706479126419529
2.299999999999999 220.3520000000002 9.04200496869217
2.399999999999999 218.77599999999984 9.716183830508122
2.499999999999999 217.49800000000016 10.201375596656762
2.599999999999999 215.7039999999999 9.554667742819511
2.6999999999999993 213.7580000000003 10.287432491504717
2.7999999999999994 212.69399999999982 9.793787943501842
2.8999999999999995 211.17999999999978 9.99777753080932
2.9999999999999996 209.7480000000001 10.418302982589681
3.0999999999999996 208.0739999999997 10.483913221523549
3.1999999999999997 206.49799999999988 10.895811796957332
3.3 205.06999999999996 10.76601165738766
3.4 204.45599999999973 10.728054583900816
3.5 202.2440000000001 11.072084494577124
3.6 201.34000000000003 11.793196321586455
3.7 200.47399999999996 10.689133808760268
3.8000000000000003 199.08400000000026 11.213147581240445
3.9000000000000004 198.908 10.825743980564695
4.0 195.81200000000015 11.578026891776782
