# Rounds: 50, repetitions: 1000
# Good arm ~ N(5.0,0.0), 4 bad arm(s) ~ N(0.4,0.0)
# Observation noise range from 0.5 to 4.0 with step size 0.1

# Observation noise | mean | standard deviation

0.5 236.02499999999972 2.6332848666996327
0.6 235.66620000000012 3.2274934971699256
0.7 235.5834000000002 3.413651630945591
0.7999999999999999 235.57880000000003 3.36539989844842
0.8999999999999999 235.42700000000016 3.6528912678335654
0.9999999999999999 235.13719999999995 3.956041762472504
1.0999999999999999 234.93479999999985 4.164907611870314
1.1999999999999997 234.32299999999978 4.9052311150742165
1.2999999999999996 234.2953999999999 4.715953674397027
1.3999999999999995 233.70659999999995 4.7234931806691565
1.4999999999999993 232.78660000000013 5.362736184018278
1.5999999999999992 232.0276 6.042813403856973
1.699999999999999 230.5923999999999 6.486411625527307
1.799999999999999 228.7017999999997 7.014413643260484
1.8999999999999988 227.6667999999999 6.529165932013663
1.9999999999999987 225.54620000000003 7.338602090360319
2.0999999999999988 224.15700000000024 7.9073584285346366
2.199999999999999 222.06400000000002 7.993179274538692
2.299999999999999 220.39420000000024 8.321734051122855
2.399999999999999 218.71059999999966 8.5318767314443
2.499999999999999 216.48880000000028 9.09535926283951
2.599999999999999 215.06279999999987 8.915735892594997
2.6999999999999993 212.3395999999998 9.301801726297764
2.7999999999999994 210.6743999999998 9.259099068243925
2.8999999999999995 208.2823999999999 9.779933401477626
2.9999999999999996 206.30900000000003 10.010164953805853
3.0999999999999996 203.93079999999998 10.724050382976406
3.1999999999999997 201.64920000000004 10.85830752015254
3.3 200.15419999999986 11.445833716661667
3.4 196.51559999999975 12.082426149646466
3.5 194.5053999999998 12.490988577195765
3.6 191.64420000000015 12.33852201381857
3.7 189.84099999999998 12.876393925339524
3.8000000000000003 187.89059999999992 12.635878167229116
3.9000000000000004 185.12139999999988 13.765821438616738
4.0 182.25559999999987 13.533744155660377
