# Rounds: 50, repetitions: 1000
# Good arm ~ N(5.0,1.0), 4 bad arm(s) ~ N(2.9,1.0)
# Observation noise range from 0.5 to 4.0 with step size 0.1

# Observation noise | mean | standard deviation

0.5 240.22199627809923 10.478689962607978
0.6 239.72254403175432 11.623812446285434
0.7 238.85258517371489 11.599493573932195
0.7999999999999999 238.3124021163725 11.263612286206106
0.8999999999999999 237.497934643585 11.500705431781787
0.9999999999999999 236.5085564953096 10.958645573615778
1.0999999999999999 235.01889425004148 11.54572166526264
1.1999999999999997 234.35708735250753 11.202532317166524
1.2999999999999996 233.2012809728509 11.57674260197685
1.3999999999999995 231.7356709300228 12.428346351536412
1.4999999999999993 230.67303881521048 12.0619438611936
1.5999999999999992 229.17789245990008 12.218751481519604
1.699999999999999 228.01911052178022 12.478431849458888
1.799999999999999 226.8588887782196 13.242111050052566
1.8999999999999988 224.20178917040235 13.74612801935377
1.9999999999999987 222.99443689072197 13.233131645399984
2.0999999999999988 221.37972218092722 14.077393290518062
2.199999999999999 219.94253022021445 14.225583426915996
2.299999999999999 218.6596210980565 14.62573609531832
2.399999999999999 216.55064714295125 15.108650063311817
2.499999999999999 215.24322588904667 14.807560606322683
2.599999999999999 213.51584828884398 14.634525627528722
2.6999999999999993 211.52681889738523 15.327008592226177
2.7999999999999994 210.46882097410213 15.526423917083017
2.8999999999999995 209.00447419632397 14.67001049465988
2.9999999999999996 207.02636654009422 14.910144687061036
3.0999999999999996 206.81356408017461 14.86020026177402
3.1999999999999997 204.4424136598442 15.321190970451628
3.3 202.64883950691612 15.604570440852946
3.4 202.1874324857787 15.72851854182238
3.5 200.46844323782778 15.51779645677714
3.6 199.56210719100483 15.936484381365347
3.7 198.5636545892712 15.629022746098492
3.8000000000000003 197.50550191444844 14.870435913641296
3.9000000000000004 195.90058006941237 15.591903827903156
4.0 194.05698947415405 15.043902944856379
