# Rounds: 50, repetitions: 1000
# Good arm ~ N(5.0,0.0), 4 bad arm(s) ~ N(1.7,0.0)
# Observation noise range from 0.5 to 4.0 with step size 0.1

# Observation noise | mean | standard deviation

0.5 240.0939 4.035194615577476
0.6 239.96190000000004 4.033897708261929
0.7 239.7045 4.468556561994903
0.7999999999999999 239.64179999999985 4.456965032092716
0.8999999999999999 239.22269999999992 5.190043473927916
0.9999999999999999 238.38449999999983 5.91887174998688
1.0999999999999999 238.36470000000017 5.0885279823370215
1.1999999999999997 237.37800000000016 5.97443804134832
1.2999999999999996 236.39130000000023 6.072417027721237
1.3999999999999995 234.81389999999993 6.652078392272378
1.4999999999999993 233.90969999999982 6.618241233668277
1.5999999999999992 232.43790000000004 6.638233178318618
1.699999999999999 230.91329999999994 7.417774362063488
1.799999999999999 228.90689999999972 7.3814990969937115
1.8999999999999988 228.05879999999988 7.210237866401456
1.9999999999999987 225.90389999999994 7.791834666975255
2.0999999999999988 224.52120000000008 7.907647023068327
2.199999999999999 222.6071999999999 8.118399877843927
2.299999999999999 220.9704000000001 8.529933387993328
2.399999999999999 219.35999999999996 8.404631927564534
2.499999999999999 216.94770000000005 8.610310805201026
2.599999999999999 215.11290000000005 9.3323092311381
2.6999999999999993 213.33749999999998 9.43277482986801
2.7999999999999994 211.0176 9.787831827932651
2.8999999999999995 209.51940000000002 9.85224900469176
2.9999999999999996 206.86620000000042 10.530458114826141
3.0999999999999996 205.72439999999983 11.01256651563387
3.1999999999999997 203.3814000000001 10.81099772045638
3.3 200.89649999999995 10.872901992924781
3.4 199.12439999999987 12.02969485058524
3.5 197.0586000000001 11.984873935225355
3.6 195.06209999999993 12.022014907345277
3.7 192.71910000000005 12.673727492673919
3.8000000000000003 190.3562999999998 13.000324178217188
3.9000000000000004 188.01329999999984 13.422582420265822
4.0 187.30049999999997 13.276487293891556
