# Rounds: 50, repetitions: 1000
# Good arm ~ N(5.0,1.0), 4 bad arm(s) ~ N(0.0,1.0)
# Observation noise range from 0.5 to 4.0 with step size 0.1

# Observation noise | mean | standard deviation

0.5 234.2421241496822 7.731803752331278
0.6 234.05889340697422 7.776929753499137
0.7 234.1001186522175 8.129949429480655
0.7999999999999999 233.50273864686773 7.947285788042891
0.8999999999999999 233.31030516351078 8.022015455029923
0.9999999999999999 233.09402318000988 8.20436474533995
1.0999999999999999 233.35123845486768 8.525628570513126
1.1999999999999997 232.31223857306486 8.53525725449619
1.2999999999999996 232.03230319036632 9.306138911061232
1.3999999999999995 230.90158328397504 9.001761532473674
1.4999999999999993 230.29660195077798 9.172829797089705
1.5999999999999992 229.62974326702044 9.974487587873151
1.699999999999999 228.58515480069707 10.078083232990714
1.799999999999999 227.22735332759888 10.229474164616763
1.8999999999999988 225.43379744351577 10.827739372338492
1.9999999999999987 224.68800938822733 10.792642820719383
2.0999999999999988 222.41364542329802 11.133166318092234
2.199999999999999 221.19365213966927 11.44062347807253
2.299999999999999 218.57455601993124 11.96652948688463
2.399999999999999 216.9933303950823 12.688728741426509
2.499999999999999 215.32532273025214 12.45293526005044
2.599999999999999 213.54065905464765 12.104981481358758
2.6999999999999993 211.82737737729826 12.82874443530945
2.7999999999999994 208.95922309143592 13.300650515311624
2.8999999999999995 206.86972882313873 13.911175120136006
2.9999999999999996 204.85363430541491 14.216781750357887
3.0999999999999996 203.37821676032945 13.850866289316246
3.1999999999999997 200.8757045651692 15.00462960245136
3.3 198.09873220010059 14.797036244529961
3.4 194.61340069866054 15.129905778227766
3.5 192.8328486529988 15.213617314875636
3.6 190.78523691484142 15.768590140091748
3.7 187.90498528240315 16.595031523685858
3.8000000000000003 186.50226300122833 16.285979962320443
3.9000000000000004 182.35850881930472 16.80953128451959
4.0 180.3877509063082 16.9276230431674
