# Rounds: 50, repetitions: 1000
# Good arm ~ N(5.0,0.0), 4 bad arm(s) ~ N(2.1,0.0)
# Observation noise range from 0.5 to 4.0 with step size 0.1

# Observation noise | mean | standard deviation

0.5 240.9262999999999 4.751112646673545
0.6 240.70589999999999 5.185372047719705
0.7 240.81319999999974 4.813555450607797
0.7999999999999999 240.39849999999976 5.177098617961606
0.8999999999999999 240.38400000000004 5.190597875611868
0.9999999999999999 239.07610000000017 6.217450883238675
1.0999999999999999 238.12780000000004 6.577325320247438
1.1999999999999997 237.60290000000015 6.461186308915633
1.2999999999999996 236.29790000000008 6.483557828238466
1.3999999999999995 235.26839999999984 6.248289570959593
1.4999999999999993 233.63279999999992 7.233042310194304
1.5999999999999992 232.21470000000014 7.425986748519658
1.699999999999999 230.91260000000014 6.993859829544453
1.799999999999999 228.99569999999983 7.167177962765396
1.8999999999999988 227.50510000000025 8.128019974058773
1.9999999999999987 226.1653 7.513442468517854
2.0999999999999988 223.71190000000004 8.653175477004725
2.199999999999999 222.6678999999998 8.236646279398691
2.299999999999999 220.57990000000015 8.48883421302925
2.399999999999999 219.2574999999998 8.934102189472192
2.499999999999999 217.43339999999964 8.86149143600951
2.599999999999999 215.28739999999996 9.605671770895087
2.6999999999999993 213.1733 9.904141008644764
2.7999999999999994 211.95529999999985 10.09452779486991
2.8999999999999995 209.24959999999987 10.38615097001638
2.9999999999999996 207.85469999999984 10.750630398444745
3.0999999999999996 205.6217 11.347705033156238
3.1999999999999997 203.33359999999993 11.31571280991154
3.3 201.56460000000004 10.963694150669793
3.4 199.81300000000016 11.896338675150153
3.5 197.57710000000006 12.644269181456629
3.6 196.33880000000005 11.950321533111369
3.7 194.32619999999997 12.739292096624652
3.8000000000000003 191.84090000000015 12.729456243149027
3.9000000000000004 190.54459999999997 12.947406155912697
4.0 188.3319 13.544177240686373
