# Rounds: 50, repetitions: 1000
# Good arm ~ N(5.0,0.0), 4 bad arm(s) ~ N(4.1,0.0)
# Observation noise range from 0.5 to 4.0 with step size 0.1

# Observation noise | mean | standard deviation

0.5 244.85699999999986 6.1024430198741655
0.6 244.05869999999993 5.779765566180014
0.7 242.37119999999973 6.038187664379987
0.7999999999999999 241.03199999999995 5.926276803926468
0.8999999999999999 239.65409999999957 5.970359149865173
0.9999999999999999 238.75319999999982 5.640679660025672
1.0999999999999999 237.37979999999988 5.890894210100423
1.1999999999999997 236.0424 6.205658098254577
1.2999999999999996 235.07760000000005 6.084639765925444
1.3999999999999995 233.5781999999999 6.3113023455779445
1.4999999999999993 233.0292000000002 5.815421436704883
1.5999999999999992 232.20389999999998 6.348702293446349
1.699999999999999 230.80799999999996 6.252627555784176
1.799999999999999 229.96560000000014 6.3054766414344705
1.8999999999999988 229.33649999999983 6.4178662152429675
1.9999999999999987 228.6902999999999 5.903460574676268
2.0999999999999988 227.81999999999982 6.1467196261227475
2.199999999999999 226.9686000000001 6.161257593635856
2.299999999999999 226.77060000000012 6.21402363446825
2.399999999999999 226.434 5.816407361472771
2.499999999999999 225.91559999999993 6.007167610671677
2.599999999999999 225.26669999999964 5.8832996119800365
2.6999999999999993 224.38650000000027 5.777690668377789
2.7999999999999994 223.94729999999976 5.910274448285305
2.8999999999999995 223.82399999999996 5.4790312815117055
2.9999999999999996 223.37040000000016 5.714367667366017
3.0999999999999996 223.02569999999977 5.566157707217958
3.1999999999999997 222.54779999999985 5.676740309415313
3.3 222.44699999999966 5.600562230463795
3.4 222.34169999999995 5.327336259484827
3.5 221.72340000000003 5.331800872176367
3.6 221.86739999999983 5.213086754842443
3.7 221.3021999999998 5.106644002960573
3.8000000000000003 220.9872000000001 5.0298623913260085
3.9000000000000004 220.67939999999982 5.038825796294762
4.0 220.68389999999997 4.888737111007385
