# Rounds: 50, repetitions: 1000
# Good arm ~ N(5.0,0.0), 4 bad arm(s) ~ N(1.8,0.0)
# Observation noise range from 0.5 to 4.0 with step size 0.1

# Observation noise | mean | standard deviation

0.5 240.33760000000004 4.23202271452509
0.6 240.25440000000006 4.187048126307107
0.7 239.97600000000028 4.778838907234802
0.7999999999999999 239.51839999999982 4.918138827801565
0.8999999999999999 239.4352000000003 5.306844972633352
0.9999999999999999 239.0159999999997 5.39446051095046
1.0999999999999999 238.18399999999997 5.745045652520904
1.1999999999999997 237.61440000000022 5.760668185023152
1.2999999999999996 236.1744000000002 6.417043172917215
1.3999999999999995 235.0352000000002 6.863593072864211
1.4999999999999993 233.7487999999999 6.827836986770962
1.5999999999999992 232.48799999999994 6.756649192336989
1.699999999999999 231.0192000000001 6.875593439489102
1.799999999999999 229.6048000000002 7.043452788738408
1.8999999999999988 227.83199999999997 7.585768245858819
1.9999999999999987 226.02400000000011 7.829191544485316
2.0999999999999988 224.4112000000002 8.199174410940461
2.199999999999999 223.15679999999983 8.01718210900619
2.299999999999999 221.1856 8.42666727486981
2.399999999999999 218.5999999999999 8.680045114121425
2.499999999999999 217.36160000000012 8.816535415725198
2.599999999999999 214.54880000000006 9.751027694612558
2.6999999999999993 213.2623999999999 9.63950550112951
2.7999999999999994 211.73919999999993 10.001936917522631
2.8999999999999995 209.36159999999987 10.0895433159447
2.9999999999999996 207.45119999999966 10.66528231256946
3.0999999999999996 205.03199999999998 11.18031732534884
3.1999999999999997 203.25920000000005 11.736582241978432
3.3 201.47679999999983 11.321598842935582
3.4 199.09919999999983 11.334318953785727
3.5 196.7759999999997 12.201828905071094
3.6 194.55839999999986 12.467125517081243
3.7 192.72799999999987 12.76969385228485
3.8000000000000003 190.63519999999986 13.426510795890085
3.9000000000000004 188.51360000000005 13.479186307173867
4.0 187.0319999999999 13.377330412640967
