# Rounds: 50, repetitions: 1000
# Good arm ~ N(5.0,0.0), 4 bad arm(s) ~ N(1.1,0.0)
# Observation noise range from 0.5 to 4.0 with step size 0.1

# Observation noise | mean | standard deviation

0.5 238.25340000000008 3.076272402095082
0.6 238.02719999999982 3.419712647956619
0.7 237.94920000000005 4.125040038025716
0.7999999999999999 237.66060000000007 4.2905216718035994
0.8999999999999999 237.44609999999994 4.448907457743682
0.9999999999999999 237.22379999999993 4.902559397768518
1.0999999999999999 237.04439999999983 4.915814670415647
1.1999999999999997 236.61539999999988 4.791945908040455
1.2999999999999996 235.67549999999983 5.547053231180439
1.3999999999999995 234.8252999999999 5.628923048388943
1.4999999999999993 233.6903999999999 6.246418620744679
1.5999999999999992 232.52819999999986 6.324720297914129
1.699999999999999 231.1241999999999 7.078699198464509
1.799999999999999 229.26780000000002 7.05638120254821
1.8999999999999988 227.85599999999997 7.18467839249634
1.9999999999999987 226.43249999999995 7.265780434014993
2.0999999999999988 224.28749999999997 7.82667174094712
2.199999999999999 222.66900000000007 8.117465876260361
2.299999999999999 221.2026000000001 7.678465476387351
2.399999999999999 218.6091 8.440705699330062
2.499999999999999 216.88920000000002 8.899542978446943
2.599999999999999 214.76760000000021 9.102629735857011
2.6999999999999993 213.52349999999993 9.060407757862713
2.7999999999999994 211.39019999999988 9.552114260562798
2.8999999999999995 208.91760000000002 10.271952260560964
2.9999999999999996 206.58539999999985 10.112458091317286
3.0999999999999996 205.0409999999999 10.744120956836651
3.1999999999999997 202.2681 10.706971169365382
3.3 199.86179999999993 11.075602454482103
3.4 198.29400000000004 11.605534560391085
3.5 195.5210999999997 12.503303458981838
3.6 193.5165 12.909372162876085
3.7 191.20379999999983 12.602660537069651
3.8000000000000003 188.44260000000014 12.802708877210067
3.9000000000000004 186.2118000000002 13.77944533984849
4.0 184.26179999999974 13.938738436070482
