# Rounds: 50, repetitions: 1000
# Good arm ~ N(5.0,0.0), 4 bad arm(s) ~ N(2.7,0.0)
# Observation noise range from 0.5 to 4.0 with step size 0.1

# Observation noise | mean | standard deviation

0.5 242.49719999999994 5.985604365443788
0.6 242.23730000000023 5.8999277841222595
0.7 241.75199999999987 6.278558456867
0.7999999999999999 241.384 6.196721985321236
0.8999999999999999 240.6617999999999 5.975572627642313
0.9999999999999999 240.05459999999982 6.118636821756684
1.0999999999999999 238.72750000000028 6.718956624962535
1.1999999999999997 237.36590000000024 6.502170823303189
1.2999999999999996 236.23199999999983 6.79381423884344
1.3999999999999995 234.69560000000018 6.8705505678296905
1.4999999999999993 233.33169999999987 7.381552168915596
1.5999999999999992 232.22770000000006 6.610833974305806
1.699999999999999 230.49349999999984 7.275413348352764
1.799999999999999 229.01689999999988 7.651730089552552
1.8999999999999988 227.39309999999995 7.523387784353147
1.9999999999999987 225.06320000000017 8.287895690401447
2.0999999999999988 224.02360000000039 8.311257428334164
2.199999999999999 222.2456999999999 8.166628149078711
2.299999999999999 220.5367999999998 8.847242477713564
2.399999999999999 218.61399999999975 9.058354032481702
2.499999999999999 216.6429000000001 9.507588749721652
2.599999999999999 215.74590000000006 9.672093495339169
2.6999999999999993 213.93580000000026 9.724556821026109
2.7999999999999994 211.91409999999996 10.327454066588572
2.8999999999999995 210.11319999999984 10.40917752450868
2.9999999999999996 208.66419999999982 10.539844718338452
3.0999999999999996 207.09100000000007 10.9126726985384
3.1999999999999997 205.42579999999964 11.69498298361254
3.3 203.21780000000004 10.906533621441584
3.4 202.2035000000001 11.30307290993059
3.5 200.39109999999982 11.546401611765436
3.6 198.63619999999997 11.53791719042449
3.7 197.6104 11.71864234535805
3.8000000000000003 195.5702999999999 12.26560446789977
3.9000000000000004 194.17650000000015 12.124024485282103
4.0 191.6556999999998 13.028318563598086
