# Rounds: 50, repetitions: 1000
# Good arm ~ N(5.0,0.0), 4 bad arm(s) ~ N(0.9,0.0)
# Observation noise range from 0.5 to 4.0 with step size 0.1

# Observation noise | mean | standard deviation

0.5 237.62830000000002 3.1208795233073277
0.6 237.52169999999992 3.2399222531113923
0.7 237.28389999999993 3.5853878166518993
0.7999999999999999 237.165 3.8469720812860673
0.8999999999999999 237.042 3.649673425954144
0.9999999999999999 236.7714000000002 4.3626316134409455
1.0999999999999999 236.2835000000002 4.846283546617358
1.1999999999999997 235.7053999999998 5.287612853612668
1.2999999999999996 235.38969999999992 5.5762423179403395
1.3999999999999995 234.07360000000008 6.0220351998264
1.4999999999999993 233.43809999999988 6.5065300524414305
1.5999999999999992 232.3105999999999 6.1896736343445315
1.699999999999999 230.82639999999986 7.034969355571818
1.799999999999999 229.43239999999986 6.725743517698686
1.8999999999999988 227.77600000000027 7.124355440349675
1.9999999999999987 226.54190000000008 7.198509076393709
2.0999999999999988 224.59440000000006 7.7927579017775015
2.199999999999999 222.87240000000008 7.891630761514098
2.299999999999999 220.74449999999996 8.030990384538912
2.399999999999999 218.97739999999996 8.728992183782957
2.499999999999999 217.14880000000014 8.610572601199111
2.599999999999999 215.02500000000018 9.396742721484635
2.6999999999999993 213.47109999999978 9.134191164971226
2.7999999999999994 210.8676 10.086630277270535
2.8999999999999995 208.79299999999998 9.89189975084061
2.9999999999999996 206.70200000000003 10.271196301963734
3.0999999999999996 204.77090000000007 10.48393132398365
3.1999999999999997 202.17970000000003 11.103845878942227
3.3 200.43310000000008 10.95141670825825
3.4 197.70250000000019 11.65760539362667
3.5 195.71810000000005 12.324135129764553
3.6 193.30320000000017 12.213989163712698
3.7 190.76120000000012 12.83212991354586
3.8000000000000003 188.4734 12.504815986765365
3.9000000000000004 186.18149999999986 13.295188219043009
4.0 183.52469999999977 14.033280188995791
