# Rounds: 50, repetitions: 1000
# Good arm ~ N(5.0,1.0), 4 bad arm(s) ~ N(0.7,1.0)
# Observation noise range from 0.5 to 4.0 with step size 0.1

# Observation noise | mean | standard deviation

0.5 236.45143974978012 8.433420632085737
0.6 236.03437503479623 8.057129551331137
0.7 236.33245424159207 8.378358858073183
0.7999999999999999 235.69679013270456 8.201916719290226
0.8999999999999999 235.4055829968395 8.020577577062271
0.9999999999999999 234.81554146585083 8.98605269727668
1.0999999999999999 234.95078042810724 8.698854954584457
1.1999999999999997 234.26927445433307 9.103161907922955
1.2999999999999996 233.30690197699488 9.152267376814217
1.3999999999999995 233.0110976909653 9.006853665144167
1.4999999999999993 231.37117070439086 9.90115075556125
1.5999999999999992 230.4049394790296 10.547809695796657
1.699999999999999 228.63729329586528 10.085737430827264
1.799999999999999 227.2902380862967 10.64418108083084
1.8999999999999988 226.54451072362414 10.920052597547267
1.9999999999999987 224.48768974049594 11.207989846739284
2.0999999999999988 222.29096115191788 11.85662290815934
2.199999999999999 221.60137215829937 11.678791071850355
2.299999999999999 219.52162770984583 12.811986717085244
2.399999999999999 217.72763739968497 12.383125955257906
2.499999999999999 215.3496354584006 12.424161333199002
2.599999999999999 214.03812883220306 13.099515385206159
2.6999999999999993 211.7855646778352 13.472910358926814
2.7999999999999994 209.08134100821204 13.750919791174336
2.8999999999999995 207.19707580547998 13.422666173766464
2.9999999999999996 204.88389240365623 14.508513035076607
3.0999999999999996 202.61065387506923 14.694545824830582
3.1999999999999997 201.07118390609023 14.660788550463888
3.3 198.67588612015072 15.00479829951392
3.4 196.40516454805658 15.705221971277862
3.5 193.35399747352506 15.738114198415492
3.6 191.11208166124845 16.20003026597944
3.7 190.00444543684185 16.725300488185276
3.8000000000000003 186.70658062646712 16.53517496645759
3.9000000000000004 184.94716041818052 17.6555220179944
4.0 182.02513477789017 17.413785812405546
