# Rounds: 50, repetitions: 1000
# Good arm ~ N(5.0,1.0), 4 bad arm(s) ~ N(0.8,1.0)
# Observation noise range from 0.5 to 4.0 with step size 0.1

# Observation noise | mean | standard deviation

0.5 236.61966988610789 8.09153142874268
0.6 236.78114875468503 8.46439161881143
0.7 236.38153849030715 8.600513910784864
0.7999999999999999 235.9343874651467 8.71384266062633
0.8999999999999999 235.67727196413776 8.468454485911108
0.9999999999999999 235.5374841264173 8.657882462210626
1.0999999999999999 234.495934683966 8.81085813966605
1.1999999999999997 233.92108725956234 9.474059566189528
1.2999999999999996 233.15896659159324 9.412735367315426
1.3999999999999995 232.66555591271103 9.535602302797173
1.4999999999999993 231.6011177267527 10.089859585198116
1.5999999999999992 230.02505744840332 10.608634512375115
1.699999999999999 229.41141085896732 10.078400292909828
1.799999999999999 227.36417682122158 10.798745758061585
1.8999999999999988 225.69073268580996 10.626403235785908
1.9999999999999987 224.59056861081947 11.270816918141046
2.0999999999999988 223.5112983635047 11.182406614701728
2.199999999999999 221.60692648864705 11.592704876512686
2.299999999999999 219.29416173686255 12.087722777783018
2.399999999999999 217.723406753537 12.488061751536254
2.499999999999999 215.2764069517986 12.9271164075386
2.599999999999999 213.7037815179185 13.143732596119344
2.6999999999999993 211.28746714416192 13.26663380604537
2.7999999999999994 209.15766617178224 13.147766082046383
2.8999999999999995 206.86383201818398 14.371488630935366
2.9999999999999996 205.48662027055738 14.157297702542676
3.0999999999999996 203.15343266860168 14.521348070350797
3.1999999999999997 201.47938138393525 14.259034994046717
3.3 198.83992846700636 15.608912883427084
3.4 195.68518768743917 16.50493457981497
3.5 193.68050316902682 16.362029536068636
3.6 193.11005770507364 16.703481275643085
3.7 189.58255676801718 16.791799311402368
3.8000000000000003 186.96291873440467 17.402236102802092
3.9000000000000004 184.58402618824402 17.775000417106455
4.0 182.05264700909686 18.040614440015084
