# Rounds: 100, repetitions: 1000
# Good arm ~ N(5.0,1.0), 19 bad arm(s) ~ N(3.0,1.0)
# Observation noise range from 0.5 to 8.0 with step size 0.1

# Observation noise | mean | standard deviation

0.5 448.9769722265509 22.672480192516392
0.6 445.39974545290636 21.45657920451509
0.7 443.21353772085916 20.61407893154067
0.7999999999999999 438.26030215775006 21.82625416172572
0.8999999999999999 434.8978574460905 18.822182564204535
0.9999999999999999 429.73102611761544 19.62501163200341
1.0999999999999999 424.6256823272292 21.174216728013903
1.1999999999999997 418.2306554087007 20.16640398853333
1.2999999999999996 411.00450303687114 23.436358123970347
1.3999999999999995 406.0919407131943 24.015887982089534
1.4999999999999993 402.20074030859337 23.44169035873947
1.5999999999999992 395.92680106769626 24.513985303617286
1.699999999999999 392.0468035289101 22.823486187414137
1.799999999999999 385.8484774234884 23.45738670267783
1.8999999999999988 379.5532863505198 23.784698966735778
1.9999999999999987 377.5551701250526 24.016217387305247
2.0999999999999988 372.1614981290673 24.110248877075275
2.199999999999999 367.53248417813336 23.90143737607404
2.299999999999999 364.19539333087886 23.174336731052705
2.399999999999999 360.52212095575635 23.59998035576981
2.499999999999999 358.488527797276 22.22542262392489
2.599999999999999 354.8724262410557 21.71482412151485
2.6999999999999993 350.91565463667314 21.975379288674425
2.7999999999999994 348.63876886847515 21.420756259398505
2.8999999999999995 347.3806518435017 21.028493048498593
2.9999999999999996 344.62996842692957 20.356880137997642
3.0999999999999996 342.374966433451 19.591394460202306
3.1999999999999997 341.47121284425015 20.011722457763813
3.3 338.1648765848707 19.529645158217694
3.4 338.0896804442178 18.363832269517314
3.5 336.3717679230275 17.98832472497427
3.6 334.4584183103656 17.345178781847324
3.7 331.7528047859933 16.761673728977193
3.8000000000000003 332.3707334268491 17.513234406019023
3.9000000000000004 330.84856624547996 16.376753529662352
4.0 330.51544553164314 16.64199586163249
4.1 328.7126752684491 16.050413716490468
4.199999999999999 327.97342112306063 15.984930370451023
4.299999999999999 327.025340686546 14.973156667202181
4.399999999999999 326.6418134136396 15.434488111533776
4.499999999999998 325.79295733005824 15.208810268154389
4.599999999999998 324.78439487578106 14.117478313030464
4.6999999999999975 324.9822728140799 14.896280703858046
4.799999999999997 323.50934693002506 14.603973191530805
4.899999999999997 323.68649705770935 14.46284871876939
4.9999999999999964 322.65494411878916 14.270861231855307
5.099999999999996 323.2003977221688 14.219802847394892
5.199999999999996 321.8800856690372 13.249455956123663
5.299999999999995 321.3434391247347 13.704619821135328
5.399999999999995 320.6787681130977 12.950488828873018
5.499999999999995 321.13780631466517 12.983420857511272
5.599999999999994 320.3189679794354 13.11801264384742
5.699999999999994 319.96293433264026 12.96277984904597
5.799999999999994 319.53160697683404 12.939129800571601
5.899999999999993 319.8213437239197 12.803693133895548
5.999999999999993 319.2804847226268 12.885430076762686
6.0999999999999925 319.23519308990984 13.15156563606904
6.199999999999992 317.5604118961993 12.656779174945965
6.299999999999992 318.5811993484699 12.449332352747703
6.3999999999999915 318.20356211811156 11.95397161671539
6.499999999999991 318.4269938020297 12.006064381204732
6.599999999999991 317.63624854576653 12.19627535835741
6.69999999999999 318.03757699533907 11.39328629786922
6.79999999999999 316.8199509286924 12.251201187741374
6.89999999999999 317.53035187963644 11.661910611826688
6.999999999999989 316.8889480486747 12.306107982097727
7.099999999999989 317.0969602313171 12.173632414568674
7.199999999999989 316.5604410381889 11.688397777786436
7.299999999999988 315.7421886787905 12.067592391512488
7.399999999999988 316.5339780928814 11.910929584143735
7.499999999999988 317.2348979672621 11.971748014981294
7.599999999999987 316.5097534930835 11.946621002250938
7.699999999999987 316.046528348314 11.83082697682734
7.7999999999999865 315.1559440118915 12.0827481429215
7.899999999999986 316.25063328737974 11.616102281388283
7.999999999999986 315.74093574108764 11.589016911319337
