# Rounds: 100, repetitions: 1000
# Good arm ~ N(5.0,1.0), 19 bad arm(s) ~ N(0.0,1.0)
# Observation noise range from 0.5 to 8.0 with step size 0.1

# Observation noise | mean | standard deviation

0.5 409.7127919880091 10.565914142249532
0.6 409.154899223457 10.393459968038051
0.7 408.82950839381704 10.707412533360028
0.7999999999999999 408.98812411893203 11.310035475186663
0.8999999999999999 408.19406147895785 10.947882228259301
0.9999999999999999 407.4428544011104 10.755596434180813
1.0999999999999999 406.29515826934113 11.654097923528067
1.1999999999999997 405.0216282026918 12.449727667159333
1.2999999999999996 402.79162588263154 13.287657809485847
1.3999999999999995 400.26388107689377 13.930589071838623
1.4999999999999993 396.5327528769746 14.99723333789077
1.5999999999999992 393.0310756709977 15.837368383778456
1.699999999999999 388.55298982975484 16.680936283864348
1.799999999999999 381.34526183156845 19.343640834275018
1.8999999999999988 375.85613450779175 19.904859701489006
1.9999999999999987 368.4465759085031 20.267593476948196
2.0999999999999988 362.3575569807635 21.300106958223683
2.199999999999999 352.90747708799586 23.643621015458095
2.299999999999999 346.80473095546563 23.983751974809035
2.399999999999999 338.0500189824575 25.25298043586828
2.499999999999999 328.51453131180944 25.73963338459251
2.599999999999999 319.52777225409017 26.314106340343013
2.6999999999999993 310.8980712232659 27.214272974059156
2.7999999999999994 300.7639610326996 29.552660728575063
2.8999999999999995 294.26778191218705 28.62855012303469
2.9999999999999996 283.7646863527171 30.4310247385584
3.0999999999999996 277.0442702117211 29.99707075139604
3.1999999999999997 267.4293518217659 31.83028225847159
3.3 258.6291292027165 32.17164531816376
3.4 247.87416068831425 34.217687203219725
3.5 240.64279933380072 33.32524346521197
3.6 229.44854666983878 35.18954153565699
3.7 222.16634990866388 35.67544484147458
3.8000000000000003 213.9871303176676 36.537633650826955
3.9000000000000004 206.3305255088094 35.5721482840834
4.0 195.82499323343524 36.511705442779906
4.1 187.54721156864912 37.40043732265136
4.199999999999999 180.7833804512483 36.68929512742884
4.299999999999999 174.32947896758097 38.95438976293808
4.399999999999999 165.13684299460996 36.49189683691644
4.499999999999998 157.15821719465094 36.9110370709351
4.599999999999998 153.63975425316886 39.40380910267672
4.6999999999999975 145.58492963252067 37.49542408844604
4.799999999999997 136.37080744658994 36.604220624145285
4.899999999999997 133.22350435925844 36.780389995019526
4.9999999999999964 124.13403115190705 36.82892672900877
5.099999999999996 120.14702975991699 36.42323954076465
5.199999999999996 114.25799754186538 34.93941442472767
5.299999999999995 112.23060790490123 34.70477035787769
5.399999999999995 107.56457607678759 34.55223768026455
5.499999999999995 102.41890852370821 34.444318584247526
5.599999999999994 97.58087059396897 32.92145156890305
5.699999999999994 94.94374696773157 32.870371502228195
5.799999999999994 89.97079231252891 31.7100289693616
5.899999999999993 85.76477835411059 31.290818182390797
5.999999999999993 83.90087891757479 30.545992680375427
6.0999999999999925 81.98833079131282 29.546257595530196
6.199999999999992 78.01421943105656 28.720091352868103
6.299999999999992 75.80007350501715 29.024032629196185
6.3999999999999915 73.38312234798538 28.699124280923485
6.499999999999991 71.13396379750883 27.589925656059485
6.599999999999991 69.89748826335482 28.514474852297877
6.69999999999999 65.53287779127467 25.57272184038492
6.79999999999999 65.3284070455638 25.32868038143584
6.89999999999999 63.39540680457399 25.0290227786987
6.999999999999989 63.226416173698325 25.65021193479387
7.099999999999989 60.24486806079525 24.54056692545588
7.199999999999989 59.01347291128026 25.390086588522973
7.299999999999988 57.15088404653169 24.571838125242873
7.399999999999988 57.903771927409 24.25253222386054
7.499999999999988 56.47450893672443 23.150816037582352
7.599999999999987 52.70882660109668 21.498654142048633
7.699999999999987 53.79091017853831 23.649795313548342
7.7999999999999865 51.38647197837409 22.516041127312185
7.899999999999986 51.43976638444548 22.881977434009354
7.999999999999986 49.26408459592476 21.76816061644277
