# Rounds: 500, repetitions: 1000
# Good arm ~ N(5.0,1.0), 19 bad arm(s) ~ N(2.0,1.0)
# Observation noise range from 0.5 to 8.0 with step size 0.1

# Observation noise | mean | standard deviation

0.5 2441.147565324081 25.051785843855793
0.6 2438.200417524221 23.199052328956164
0.7 2434.863294361475 25.049933266607304
0.7999999999999999 2429.82001666036 23.98857916414535
0.8999999999999999 2426.388591588609 24.065027009380447
0.9999999999999999 2419.517190205762 25.69104683711869
1.0999999999999999 2411.4887234021257 25.422078950715825
1.1999999999999997 2401.8663472378944 26.320386046475335
1.2999999999999996 2391.4615058084305 26.075761693885838
1.3999999999999995 2383.340849279011 28.082915604226848
1.4999999999999993 2371.91743747293 28.59964074288146
1.5999999999999992 2360.973960095818 28.22764566555899
1.699999999999999 2348.0115198531425 28.164506932669756
1.799999999999999 2337.7613624405517 27.515749378867515
1.8999999999999988 2324.227717566833 29.13869321343881
1.9999999999999987 2311.022477960552 29.43833108552903
2.0999999999999988 2298.0598263046018 29.765563977716567
2.199999999999999 2284.610501841693 31.00430815282566
2.299999999999999 2271.1626979280495 32.777448700043294
2.399999999999999 2257.9792798413887 32.84658583263218
2.499999999999999 2242.9373758120814 34.52429670934152
2.599999999999999 2227.525150569186 34.197776432675134
2.6999999999999993 2214.905279488935 33.63350815249543
2.7999999999999994 2198.1399572086057 36.29652753307321
2.8999999999999995 2182.847614668293 36.24206282263484
2.9999999999999996 2170.3179463219153 36.9454215809708
3.0999999999999996 2154.0054936953748 36.17988804553552
3.1999999999999997 2136.814034363983 38.21741983545306
3.3 2124.035419672022 39.012014786241004
3.4 2107.5303727957776 38.17225651987055
3.5 2093.1889612613077 41.53319782664269
3.6 2076.5659640538242 41.23690558360309
3.7 2063.8972355689434 40.51334385127492
3.8000000000000003 2045.41604892776 43.87315670346812
3.9000000000000004 2029.4186988559181 44.76634046320176
4.0 2014.0978344889302 44.775949547283126
4.1 1997.3152274315564 45.2730125562726
4.199999999999999 1978.9557569594097 49.032944373063316
4.299999999999999 1965.278755086026 47.22258058079636
4.399999999999999 1948.8821604943275 48.23741671875889
4.499999999999998 1930.7812578034282 50.217995405280874
4.599999999999998 1914.1107113027904 50.755064914229514
4.6999999999999975 1900.5750181782635 51.57512675604476
4.799999999999997 1883.3933921458631 51.149120231533104
4.899999999999997 1870.5527526484802 51.60300665697736
4.9999999999999964 1853.1810365832453 51.55980661914944
5.099999999999996 1833.408597275881 54.269815149733176
5.199999999999996 1819.9772857447595 51.83493314848429
5.299999999999995 1805.2112817011466 55.411288676943144
5.399999999999995 1787.6909005649866 55.49425184103841
5.499999999999995 1775.3951264076297 55.95133452904365
5.599999999999994 1760.1647630254124 56.67454121158846
5.699999999999994 1741.3747911334121 57.371759228114534
5.799999999999994 1725.4176233362818 59.90225199550973
5.899999999999993 1712.9552953589948 60.796960142666784
5.999999999999993 1698.6966072316022 60.07994440565585
6.0999999999999925 1677.9374402149783 61.537398176625224
6.199999999999992 1666.572090359231 62.55007486165213
6.299999999999992 1650.7859655337452 62.24524691112611
6.3999999999999915 1639.3089042079798 61.64686014692981
6.499999999999991 1622.8366759258138 66.04510033542745
6.599999999999991 1610.4112100487373 62.110443733352525
6.69999999999999 1599.06385786149 61.015470002831535
6.79999999999999 1581.4535486552425 64.22385093219054
6.89999999999999 1560.7339985001038 65.04239705504706
6.999999999999989 1554.5591184427915 65.17915815983294
7.099999999999989 1540.5427381309444 63.25402161796543
7.199999999999989 1530.2231641291671 64.40695830233402
7.299999999999988 1517.6860183131344 61.9969291705439
7.399999999999988 1505.8252759107556 64.56857498970881
7.499999999999988 1493.8936555948844 63.230511843289435
7.599999999999987 1481.6501597536999 64.64489657350492
7.699999999999987 1473.0841232549728 62.3036926428119
7.7999999999999865 1460.8692384530473 62.48214768443603
7.899999999999986 1447.6004366562795 64.0992453052596
7.999999999999986 1438.7225189651406 62.2104401532295
