# Rounds: 10, repetitions: 1000
# Good arm ~ N(5.0,0.0), 1 bad arm(s) ~ N(0.6,0.0)
# Observation noise range from 0.5 to 4.0 with step size 0.1

# Observation noise | mean | standard deviation

0.5 49.66720000000002 3.314995226746683
0.6 49.702400000000026 3.2895494182904974
0.7 49.45159999999999 3.355156406863105
0.7999999999999999 49.33279999999998 3.497066432545076
0.8999999999999999 49.22720000000002 3.550958950687746
0.9999999999999999 49.09959999999997 3.73206754603509
1.0999999999999999 48.782799999999924 4.011637745035951
1.1999999999999997 48.80919999999994 3.9799189834863338
1.2999999999999996 48.88400000000006 3.8976269056305775
1.3999999999999995 48.355999999999916 4.476197084617749
1.4999999999999993 47.97320000000005 4.305594024045932
1.5999999999999992 47.64759999999995 4.589195458351595
1.699999999999999 47.3616000000001 4.746022563175408
1.799999999999999 47.10200000000004 4.478523548355332
1.8999999999999988 46.60039999999998 4.722310881344014
1.9999999999999987 46.12959999999999 4.821855880688889
2.0999999999999988 45.80839999999992 4.808443674472101
2.199999999999999 45.350799999999985 5.326029097361918
2.299999999999999 44.82720000000003 5.53463027602499
2.399999999999999 44.08799999999995 5.380059575975084
2.499999999999999 43.801999999999985 5.43805557607203
2.599999999999999 43.449999999999974 5.593351909685784
2.6999999999999993 42.59639999999993 5.926218617896841
2.7999999999999994 41.97600000000005 5.975329996625174
2.8999999999999995 41.58879999999997 6.44542458322634
2.9999999999999996 41.05639999999998 6.157481109480841
3.0999999999999996 40.52840000000001 6.3968080002914265
3.1999999999999997 39.802399999999984 6.699283143339639
3.3 39.265600000000056 6.797409905355219
3.4 38.755199999999995 7.0037022213115945
3.5 38.89159999999998 6.802902978062271
3.6 37.91919999999995 7.098440618841503
3.7 37.31640000000006 7.380273672397208
3.8000000000000003 36.89839999999998 7.456508362293761
3.9000000000000004 36.370399999999925 7.2806133787732055
4.0 36.124 7.117285982715591
