# Rounds: 500, repetitions: 1000
# Good arm ~ N(5.0,1.0), 10 bad arm(s) ~ N(4.0,1.0)
# Observation noise range from 0.5 to 8.0 with step size 0.1

# Observation noise | mean | standard deviation

0.5 2452.58817591171 78.34784609368474
0.6 2454.3687248155097 58.80069637871722
0.7 2448.6025756573194 55.43574906573171
0.7999999999999999 2443.2609418971915 43.36031834976337
0.8999999999999999 2438.9243522797237 42.76903221948437
0.9999999999999999 2430.673614306002 34.91601755677812
1.0999999999999999 2420.082707994154 39.18171432018014
1.1999999999999997 2412.3847663689935 33.9333565798223
1.2999999999999996 2406.840244741376 33.734020924776694
1.3999999999999995 2394.591486483048 32.28944665158457
1.4999999999999993 2384.968065262372 33.60989731896989
1.5999999999999992 2376.1950540419843 36.0371239414879
1.699999999999999 2365.3127776959577 35.9398258098386
1.799999999999999 2356.7601297441934 36.947499818418926
1.8999999999999988 2347.685506717474 35.475203845772185
1.9999999999999987 2338.0165267233806 37.012621194615924
2.0999999999999988 2327.956565303021 38.444258573969115
2.199999999999999 2319.517727896065 39.031575475310916
2.299999999999999 2310.935257603318 37.660888961540394
2.399999999999999 2303.173087441458 38.12792872986569
2.499999999999999 2293.197515736692 41.24081330272158
2.599999999999999 2284.4795269495303 39.59429531614922
2.6999999999999993 2277.3773403123228 39.81926956988581
2.7999999999999994 2271.3164598369817 39.61953808121003
2.8999999999999995 2261.329444486047 42.35122468218764
2.9999999999999996 2255.8160371871954 40.8902487760359
3.0999999999999996 2250.874783088035 42.309863427937756
3.1999999999999997 2243.312790809161 39.7262363799281
3.3 2233.7713205468567 41.08449431995092
3.4 2226.7589944251463 40.76103058069556
3.5 2223.4023903608045 39.17892842081164
3.6 2216.903738746943 39.9257550198995
3.7 2213.0571541034174 39.9757565274857
3.8000000000000003 2207.1429480159804 39.50239331030255
3.9000000000000004 2200.61073203166 39.31524574335799
4.0 2198.605305970385 39.56495609915589
4.1 2192.5111563094556 38.795825029368324
4.199999999999999 2187.017121711172 38.98341449531314
4.299999999999999 2185.0616604399293 38.25230634619326
4.399999999999999 2180.098761927656 38.05338704505159
4.499999999999998 2176.188601302814 38.97963104151754
4.599999999999998 2169.9550591261477 38.24276481785487
4.6999999999999975 2167.7163293433705 37.41032249703653
4.799999999999997 2163.2960715003364 38.391765421751785
4.899999999999997 2160.659968171187 36.770017410853
4.9999999999999964 2157.518518627109 36.84139669407843
5.099999999999996 2151.0256439649165 36.07920018193182
5.199999999999996 2150.2473263841207 35.417788429943485
5.299999999999995 2148.7047723124138 37.26830011728983
5.399999999999995 2145.4775845846343 36.481273913457784
5.499999999999995 2142.2099991323585 34.66286040514704
5.599999999999994 2141.436372123268 35.16803149760668
5.699999999999994 2138.555792692185 35.30631254382697
5.799999999999994 2137.0921782310115 33.458692218024964
5.899999999999993 2132.3729617140534 33.7634106328432
5.999999999999993 2132.4249887602737 34.35222920488132
6.0999999999999925 2130.816358262893 35.31171603764943
6.199999999999992 2126.1557633713 32.343537271227866
6.299999999999992 2124.7492378207808 33.269167138397805
6.3999999999999915 2122.29345309692 35.17816971930131
6.499999999999991 2120.015082976969 33.04957321394222
6.599999999999991 2119.5950774884896 32.80427056127029
6.69999999999999 2118.006879174946 32.071095852273224
6.79999999999999 2114.7030714854477 31.45076350930279
6.89999999999999 2115.8394009830376 32.57962821820679
6.999999999999989 2112.7313122696187 31.4007265324037
7.099999999999989 2110.395712541951 32.312827240255096
7.199999999999989 2109.271881486201 31.74680227548589
7.299999999999988 2110.114578263437 31.485486824766117
7.399999999999988 2107.149857310643 31.182383478413175
7.499999999999988 2104.313566835033 31.038271907985763
7.599999999999987 2104.0016297668717 31.984817392109473
7.699999999999987 2101.206158992595 30.911735832009768
7.7999999999999865 2100.748830107256 30.236940804387316
7.899999999999986 2099.3120969054917 29.369317575670607
7.999999999999986 2097.9237992547182 29.99653230674008
