# Rounds: 500, repetitions: 1000
# Good arm ~ N(5.0,1.0), 10 bad arm(s) ~ N(0.5,1.0)
# Observation noise range from 0.5 to 8.0 with step size 0.1

# Observation noise | mean | standard deviation

0.5 2458.43801108406 22.81658169573832
0.6 2457.492311219439 22.828320022723787
0.7 2457.0992426175744 24.661512014893862
0.7999999999999999 2456.465490631358 22.39264953915847
0.8999999999999999 2456.352778475174 21.966054356025808
0.9999999999999999 2454.5359563982056 23.13142382023535
1.0999999999999999 2453.1912393726407 22.93831875680824
1.1999999999999997 2451.516489299828 23.167803125395523
1.2999999999999996 2447.773549414201 23.31243775639755
1.3999999999999995 2444.4138529190386 23.239181544776706
1.4999999999999993 2439.5912176887346 24.041820307904203
1.5999999999999992 2434.531458648651 24.14174706948602
1.699999999999999 2429.5209314994877 25.005300572791377
1.799999999999999 2422.943927364753 25.415072501859623
1.8999999999999988 2416.416641241688 25.23132505285152
1.9999999999999987 2410.8830411203858 24.72316474864267
2.0999999999999988 2404.645572023477 25.270795253745664
2.199999999999999 2398.1456992888775 24.845909388780623
2.299999999999999 2390.5728159076875 25.93669230031628
2.399999999999999 2385.504219472007 25.040663832380172
2.499999999999999 2376.380229106245 27.5659947019377
2.599999999999999 2370.0599271497604 27.445062226177704
2.6999999999999993 2362.8426969438947 27.569342183286192
2.7999999999999994 2353.8076733292414 27.210120954049287
2.8999999999999995 2347.369681674746 26.976770976449846
2.9999999999999996 2339.0534640085743 28.794281246536546
3.0999999999999996 2333.0039690746635 28.10905947966438
3.1999999999999997 2323.1227813396054 27.977779154411305
3.3 2313.7628833349545 29.59215991829908
3.4 2305.1276529126176 29.305517999998326
3.5 2297.570002473321 30.573667162337593
3.6 2290.0235514681563 30.964295052994437
3.7 2279.4286963154304 29.602759527388734
3.8000000000000003 2269.534350596298 31.928236958747878
3.9000000000000004 2263.337498880076 31.77939809472623
4.0 2251.918188317882 31.422545716918393
4.1 2244.2626253629583 33.02707390072898
4.199999999999999 2232.333176512865 32.952528530904424
4.299999999999999 2223.0923213094584 32.57604666262448
4.399999999999999 2214.7170119109005 32.08186199120641
4.499999999999998 2202.3830149758646 32.778001773009564
4.599999999999998 2192.9429004951535 33.80174286639916
4.6999999999999975 2182.6066317659543 33.54983156097862
4.799999999999997 2172.2187980274684 35.88287661834563
4.899999999999997 2161.991512871983 35.74675296533479
4.9999999999999964 2152.820211426078 35.99748350882046
5.099999999999996 2139.8242837553676 38.41067317167728
5.199999999999996 2130.5438291781047 36.879382515832965
5.299999999999995 2119.1230959374075 38.13086926999775
5.399999999999995 2108.242460370653 37.68976359088753
5.499999999999995 2097.4750381550275 38.54584995870118
5.599999999999994 2085.2776062759435 39.286171761301404
5.699999999999994 2074.578641158008 39.63635785265055
5.799999999999994 2062.1649085417516 40.248843795956454
5.899999999999993 2052.4739203001773 40.85868023201513
5.999999999999993 2037.3818814011086 43.8143071225158
6.0999999999999925 2026.4159687247534 42.041110237210404
6.199999999999992 2016.608194204785 42.7442886384968
6.299999999999992 2003.220094605474 42.98729656182643
6.3999999999999915 1990.5298836834156 44.517892328354414
6.499999999999991 1977.6096546463252 43.91330833733411
6.599999999999991 1965.994760436893 45.67132519771382
6.69999999999999 1954.0686699381274 47.275045256151444
6.79999999999999 1940.3614220587222 49.050848878376236
6.89999999999999 1929.74047829517 46.703842150622094
6.999999999999989 1915.922303082103 48.11456339567793
7.099999999999989 1903.7263164867386 48.15861151237426
7.199999999999989 1888.7514204437234 48.672924158238
7.299999999999988 1877.1772758669745 49.828915818416675
7.399999999999988 1865.351271043298 49.10944849008608
7.499999999999988 1851.486424610138 51.16848074931389
7.599999999999987 1840.2149334455446 51.90114583973842
7.699999999999987 1824.9965836368071 51.555801691500186
7.7999999999999865 1815.8462419354835 50.82225374422268
7.899999999999986 1800.7454595586626 54.590433386849014
7.999999999999986 1784.5653089446844 56.18864650951646
