# Rounds: 500, repetitions: 1000
# Good arm ~ N(5.0,1.0), 10 bad arm(s) ~ N(2.0,1.0)
# Observation noise range from 0.5 to 8.0 with step size 0.1

# Observation noise | mean | standard deviation

0.5 2468.152337215473 24.14878186555573
0.6 2468.3030608229847 23.871009142232847
0.7 2465.8165985498795 24.326080634727468
0.7999999999999999 2464.046033850875 23.63422778020632
0.8999999999999999 2461.410050518569 23.92734180066327
0.9999999999999999 2459.445280999616 23.61003234203725
1.0999999999999999 2452.977396905584 23.502492700708807
1.1999999999999997 2449.8983422768997 23.951906121980606
1.2999999999999996 2444.6609987260886 24.761381552803233
1.3999999999999995 2438.484471278792 25.10162392517298
1.4999999999999993 2432.9291753382417 24.749155963765542
1.5999999999999992 2426.6741742042555 25.192363912665957
1.699999999999999 2421.9603004806822 26.326978449536917
1.799999999999999 2414.821841411921 25.577087119344846
1.8999999999999988 2406.050922266419 26.86665247653947
1.9999999999999987 2398.035253845538 27.414223974355508
2.0999999999999988 2392.9424982357687 27.079722096469794
2.199999999999999 2386.1525583941366 27.29631301865625
2.299999999999999 2376.926602843101 27.128878495680233
2.399999999999999 2369.195352976829 27.747780050086078
2.499999999999999 2361.329330659789 27.666857943573028
2.599999999999999 2355.6891292208775 27.8147654378555
2.6999999999999993 2346.1458912438334 28.225227425049695
2.7999999999999994 2337.289934059618 28.066149444765916
2.8999999999999995 2330.1547955025194 30.544398882221873
2.9999999999999996 2321.4331203891907 30.42383337202855
3.0999999999999996 2312.0420638085593 29.528834110471273
3.1999999999999997 2302.4618300470634 30.27797001831275
3.3 2296.2502201545167 31.265322654781034
3.4 2286.0015998099275 32.76461499483801
3.5 2276.80008954476 32.54719209606725
3.6 2267.8627048210237 33.29313358941789
3.7 2256.3443191283386 33.38708362175418
3.8000000000000003 2249.2335474966044 33.39498003602832
3.9000000000000004 2238.143420399181 35.22606006593054
4.0 2229.7330381655815 34.56631114461912
4.1 2220.911338154289 37.356215403104514
4.199999999999999 2212.156912327112 36.5368028311006
4.299999999999999 2201.1839158906673 36.43509355132887
4.399999999999999 2189.648334998877 37.21812796662674
4.499999999999998 2178.341529204824 38.09260951001971
4.599999999999998 2170.846872813027 37.86450360312713
4.6999999999999975 2159.8724627331812 38.38383654819111
4.799999999999997 2150.658802803715 38.49754479328949
4.899999999999997 2141.6917784335533 38.769857294540316
4.9999999999999964 2128.1096606704045 40.66317687832476
5.099999999999996 2118.165857108187 39.937761589955656
5.199999999999996 2106.9127393853546 42.26760857762298
5.299999999999995 2099.7786194131018 41.93091005420996
5.399999999999995 2084.3250072203255 44.15317290753113
5.499999999999995 2077.4915203184205 43.24214138728657
5.599999999999994 2067.9394930320714 43.07412685130774
5.699999999999994 2056.0218945799083 43.30604807413224
5.799999999999994 2048.3022906633096 42.75795572514468
5.899999999999993 2034.0880511581136 45.963641457035656
5.999999999999993 2024.54655984139 43.13840162483588
6.0999999999999925 2010.413247723307 46.86627924907102
6.199999999999992 1999.3321563600648 47.19215223987619
6.299999999999992 1993.5907647009699 46.861100875345215
6.3999999999999915 1979.9871856320042 48.586001420328536
6.499999999999991 1969.0336006639552 49.228440472797985
6.599999999999991 1957.1386983389361 49.14448832710832
6.69999999999999 1948.3785607796135 51.05768159743477
6.79999999999999 1935.7238177880406 51.64756817619133
6.89999999999999 1926.395709667762 49.29243047698619
6.999999999999989 1916.266018229774 50.582479146759894
7.099999999999989 1902.5508211461697 53.67060815203119
7.199999999999989 1896.8630872825863 52.399690665801465
7.299999999999988 1882.4705970039088 53.014430246559314
7.399999999999988 1870.780270281118 51.77168143988068
7.499999999999988 1859.608485029401 53.491121158450966
7.599999999999987 1854.681801728983 55.12077065757552
7.699999999999987 1839.9694612530996 52.08957639530599
7.7999999999999865 1829.6980295958037 56.73865611220816
7.899999999999986 1819.0499123505974 55.08727540333227
7.999999999999986 1809.1975844315834 57.38709951913659
