# Rounds: 100, repetitions: 1000
# Good arm ~ N(5.0,1.0), 16 bad arm(s) ~ N(3.0,1.0)
# Observation noise range from 0.5 to 8.0 with step size 0.1

# Observation noise | mean | standard deviation

0.5 456.9262670011688 21.81292615593908
0.6 455.11785056577554 17.355355189936102
0.7 451.6084659804568 19.81459798180644
0.7999999999999999 447.17643982143824 19.56379484172724
0.8999999999999999 444.24172943428056 18.798894324621443
0.9999999999999999 439.74031381693857 19.24468785962863
1.0999999999999999 434.5939301693044 19.844054290075597
1.1999999999999997 430.68779563566744 19.647618715235364
1.2999999999999996 425.33165939335225 20.991626579962006
1.3999999999999995 420.2653176520695 21.1536873899898
1.4999999999999993 414.8271666944575 22.50477508895215
1.5999999999999992 409.68070083838006 22.43460044656954
1.699999999999999 404.7553360857738 23.958169642245036
1.799999999999999 399.47933573483664 23.510746779098604
1.8999999999999988 396.20407103621847 23.33960198623236
1.9999999999999987 391.06196946462074 24.800467662446355
2.0999999999999988 385.92736083116506 22.947084453031216
2.199999999999999 381.91193718856636 24.248329641468832
2.299999999999999 377.5448541032971 24.382907231766247
2.399999999999999 374.9710408605467 23.390019649104595
2.499999999999999 369.61851568240445 23.346512636113548
2.599999999999999 367.98417509583834 22.66855141774585
2.6999999999999993 363.8266071621246 22.68434058288487
2.7999999999999994 361.00322078425495 22.58319162224249
2.8999999999999995 356.7156319018496 22.12969690615592
2.9999999999999996 355.40809850326673 21.39189160157739
3.0999999999999996 352.4644935294414 21.75004380283106
3.1999999999999997 351.42565773942795 21.251258916841415
3.3 348.2779004812804 20.882306227585264
3.4 346.0009897101678 20.9772385902731
3.5 345.296442340988 19.784376539638306
3.6 342.66199825207747 19.328662473687324
3.7 341.5470449358529 19.644036303939345
3.8000000000000003 339.25458579690326 18.65467288743096
3.9000000000000004 338.83150006446374 18.379808971202003
4.0 337.98274812710764 17.83723106193775
4.1 335.5581090678671 17.706264814780877
4.199999999999999 335.01950995713185 17.750995442399486
4.299999999999999 333.37457712769 16.639705198045107
4.399999999999999 332.89084033446454 16.627163652012694
4.499999999999998 331.5409722088683 15.95991197558942
4.599999999999998 330.18606706070847 16.692134944479456
4.6999999999999975 330.0824339259018 15.662903855590876
4.799999999999997 329.610487790827 15.405227347507886
4.899999999999997 328.61568885595335 16.25021288156061
4.9999999999999964 328.66688545178226 14.570401185987931
5.099999999999996 326.96722959938404 14.934250320325248
5.199999999999996 326.12657833138366 14.44884166496203
5.299999999999995 325.6943175628432 14.154350760873623
5.399999999999995 325.5940149814543 14.149912250771118
5.499999999999995 324.4283138430278 14.006572494348116
5.599999999999994 325.2197652382434 14.228004687288955
5.699999999999994 323.90770118117564 14.163557432924486
5.799999999999994 323.7736506926322 13.723876120526459
5.899999999999993 322.7296366897382 13.61137396061834
5.999999999999993 322.67290262572277 13.679282678761309
6.0999999999999925 322.715452563881 13.53270626024206
6.199999999999992 321.5217476069415 13.499140323404282
6.299999999999992 321.87390515109934 13.188317186878072
6.3999999999999915 321.9485656796017 13.26532387794333
6.499999999999991 321.9510480237576 12.792708580421317
6.599999999999991 320.99989613602185 13.77420433104081
6.69999999999999 321.3065707037537 12.355284982706404
6.79999999999999 321.14385604703256 12.405752032255329
6.89999999999999 319.7630945700265 12.836729204370616
6.999999999999989 320.3202574858688 12.62595632336207
7.099999999999989 319.2304431898412 12.65796909218759
7.199999999999989 320.7458380681809 12.416098809249172
7.299999999999988 319.43124713349545 12.299653038459445
7.399999999999988 319.39983453212534 12.770270432266573
7.499999999999988 319.3799932982388 12.555968304586507
7.599999999999987 318.94734764775023 12.13730280909066
7.699999999999987 319.4327025418225 11.922373675530444
7.7999999999999865 318.536143935095 12.108206253644836
7.899999999999986 319.1884817196333 12.207624844817708
7.999999999999986 318.43160663481854 12.069449684420974
