# Rounds: 1000, repetitions: 1000
# Good arm ~ N(5.0,0.0), 10 bad arm(s) ~ N(2.0,0.0)
# Observation noise range from 0.5 to 8.0 with step size 0.1

# Observation noise | mean | standard deviation

0.5 4973.113000000009 4.277912052804683
0.6 4972.744000000002 4.667788796877168
0.7 4972.2400000000025 5.415692913167247
0.7999999999999999 4970.929000000002 6.096484735167158
0.8999999999999999 4967.796999999996 6.567870882403826
0.9999999999999999 4961.209000000003 7.026712865465255
1.0999999999999999 4953.264999999992 5.891645482077693
1.1999999999999997 4946.5660000000025 5.378901056589242
1.2999999999999996 4940.926000000001 4.728518042990063
1.3999999999999995 4934.923 5.291603922448494
1.4999999999999993 4928.517999999999 5.696501217951792
1.5999999999999992 4920.741999999994 5.826781906626278
1.699999999999999 4912.827999999999 6.226812120916234
1.799999999999999 4905.31 6.195828297192241
1.8999999999999988 4896.693999999995 6.647898807785668
1.9999999999999987 4888.545999999994 7.028177521895651
2.0999999999999988 4880.064999999998 7.221698410202965
2.199999999999999 4870.902999999993 7.548282425000233
2.299999999999999 4862.1879999999965 7.709350821573114
2.399999999999999 4853.0139999999965 8.39763802055818
2.499999999999999 4843.542999999999 8.457758845266568
2.599999999999999 4833.448000000001 8.760139042049296
2.6999999999999993 4824.025000000006 8.88027219370182
2.7999999999999994 4813.9089999999915 9.252801377600898
2.8999999999999995 4804.179999999994 9.612491872558309
2.9999999999999996 4793.60200000001 10.338785542145969
3.0999999999999996 4783.408000000004 10.554664226631576
3.1999999999999997 4772.442999999991 10.428494834083425
3.3 4761.898000000005 11.203620714622426
3.4 4751.028999999997 11.655471204932416
3.5 4740.039999999999 12.100033504532618
3.6 4728.505 11.849573299802278
3.7 4717.483 12.163702835348525
3.8000000000000003 4705.272999999999 12.544234884154122
3.9000000000000004 4693.561000000006 13.351799487318152
4.0 4682.334999999996 13.681372553766511
4.1 4670.299000000006 13.067913734386549
4.199999999999999 4658.359000000009 14.357027660461053
4.299999999999999 4645.294000000004 15.133161486502964
4.399999999999999 4633.96 15.364519792966815
4.499999999999998 4622.262999999995 15.414910004617312
4.599999999999998 4609.657000000006 15.723122068074359
4.6999999999999975 4595.922999999994 16.14353383508968
4.799999999999997 4583.298999999997 16.65373669618764
4.899999999999997 4570.303000000005 16.448883146182183
4.9999999999999964 4557.475 17.975051529202304
5.099999999999996 4545.4239999999945 18.154277782434683
5.199999999999996 4530.3099999999895 18.28333066430132
5.299999999999995 4518.7179999999935 18.883035906470187
5.399999999999995 4505.215000000004 19.727644435029664
5.499999999999995 4492.197999999995 19.535978359182618
5.599999999999994 4478.658999999999 20.062333269493298
5.699999999999994 4465.363000000006 21.00543880663913
5.799999999999994 4450.765 21.143008343227823
5.899999999999993 4437.091 21.5157999769622
5.999999999999993 4422.705999999999 22.85725307244983
6.0999999999999925 4408.390000000006 22.884177625284785
6.199999999999992 4393.929999999997 23.29712119245336
6.299999999999992 4382.1969999999965 23.800181504342415
6.3999999999999915 4366.825000000003 24.508387054966178
6.499999999999991 4352.829999999993 25.033653025153637
6.599999999999991 4338.2710000000025 24.90955730327308
6.69999999999999 4323.843999999996 25.153814390234707
6.79999999999999 4306.966000000002 26.765298900352786
6.89999999999999 4294.714000000001 26.32461185258368
6.999999999999989 4279.1410000000005 28.42641694234746
7.099999999999989 4266.862000000004 28.514242371453822
7.199999999999989 4248.466000000003 28.606103424848904
7.299999999999988 4236.544000000007 30.095777441691393
7.399999999999988 4221.654999999999 30.07195200344168
7.499999999999988 4205.083000000007 30.755747869740144
7.599999999999987 4191.667000000006 30.599811428495087
7.699999999999987 4177.978000000004 31.762594012113965
7.7999999999999865 4163.437000000003 30.760855990385902
7.899999999999986 4146.907000000003 32.99604658273611
7.999999999999986 4132.413999999995 33.8769575412588
