# Rounds: 1000, repetitions: 1000
# Good arm ~ N(5.0,0.0), 10 bad arm(s) ~ N(3.0,0.0)
# Observation noise range from 0.5 to 8.0 with step size 0.1

# Observation noise | mean | standard deviation

0.5 4981.252000000003 6.089793229788833
0.6 4978.181999999996 6.993696289358567
0.7 4971.059999999996 6.067719276401735
0.7999999999999999 4964.555999999994 4.903356697906764
0.8999999999999999 4959.351999999998 4.557287007076142
0.9999999999999999 4952.445999999996 4.545519304298055
1.0999999999999999 4944.520000000003 5.027412343828052
1.1999999999999997 4936.769999999999 4.850425406768691
1.2999999999999996 4928.906 4.702475654086666
1.3999999999999995 4920.20599999999 4.932940086591101
1.4999999999999993 4911.325999999996 5.104094021055636
1.5999999999999992 4902.094000000004 5.452053639582813
1.699999999999999 4892.534000000001 5.862867661581389
1.799999999999999 4882.862000000002 5.769076029854224
1.8999999999999988 4873.011999999994 6.260275317192332
1.9999999999999987 4862.7000000000035 6.443564193792067
2.0999999999999988 4851.9 7.055762452335159
2.199999999999999 4841.776 7.142607425922365
2.299999999999999 4830.8300000000045 7.468793937636994
2.399999999999999 4820.2460000000065 8.045135686127916
2.499999999999999 4808.452000000009 7.872081406188969
2.599999999999999 4797.462000000006 8.584652133444468
2.6999999999999993 4785.846000000006 9.087291283042683
2.7999999999999994 4774.146000000004 9.155463205458616
2.8999999999999995 4762.651999999996 9.461522943819196
2.9999999999999996 4750.46000000001 10.184110963462329
3.0999999999999996 4739.148000000006 10.735611270409807
3.1999999999999997 4726.606000000004 11.09792448739529
3.3 4714.627999999999 10.737640006673375
3.4 4702.4039999999995 11.295147823927099
3.5 4689.871999999998 11.621302451561583
3.6 4676.895999999999 12.50125855526014
3.7 4665.133999999998 12.660898164914665
3.8000000000000003 4651.997999999994 12.915990818315844
3.9000000000000004 4639.927999999997 13.598961274588174
4.0 4627.140000000004 13.858876883372206
4.1 4614.168000000001 14.54975846780531
4.199999999999999 4601.423999999998 14.973992268077508
4.299999999999999 4589.188 15.254814497900847
4.399999999999999 4576.065999999996 15.576593795636947
4.499999999999998 4562.364000000006 16.076503287654283
4.599999999999998 4548.898000000006 17.08699978233631
4.6999999999999975 4537.892000000006 17.007927728139173
4.799999999999997 4523.979999999993 17.315756854247976
4.899999999999997 4510.325999999991 17.79737257210938
4.9999999999999964 4496.7980000000025 18.986829532486315
5.099999999999996 4484.6539999999995 19.06115451937817
5.199999999999996 4471.7319999999945 20.21724296022867
5.299999999999995 4458.24 20.168817049623424
5.399999999999995 4445.244000000003 20.300753300914366
5.499999999999995 4431.448000000002 21.374380930454052
5.599999999999994 4418.864000000008 21.717945878309347
5.699999999999994 4405.673999999997 21.2265939870788
5.799999999999994 4391.661999999996 22.318419923190547
5.899999999999993 4379.228000000009 22.924081868845434
5.999999999999993 4366.039999999999 23.479132643044373
6.0999999999999925 4352.736000000002 23.635078187324087
6.199999999999992 4341.070000000004 23.719057605514056
6.299999999999992 4326.464000000005 24.04085411682921
6.3999999999999915 4314.086000000001 25.59092611648709
6.499999999999991 4300.393999999996 25.786774162770357
6.599999999999991 4288.916000000009 25.705986496179065
6.69999999999999 4273.9119999999975 25.609844203355063
6.79999999999999 4261.584000000007 26.491975554283737
6.89999999999999 4249.375999999992 26.690729083691597
6.999999999999989 4237.667999999992 28.897142087424847
7.099999999999989 4222.157999999998 29.511861784475474
7.199999999999989 4210.021999999996 29.69648796402358
7.299999999999988 4198.010000000003 29.347114903396438
7.399999999999988 4184.5040000000035 28.706271684669073
7.499999999999988 4174.644000000002 30.07020920248951
7.599999999999987 4160.979999999996 30.650596389940908
7.699999999999987 4148.138000000002 32.5160614197084
7.7999999999999865 4136.202000000002 32.11252731272347
7.899999999999986 4122.778000000007 31.845515427652487
7.999999999999986 4112.066000000008 31.94758664269165
