# Rounds: 1000, repetitions: 1000
# Good arm ~ N(5.0,1.0), 10 bad arm(s) ~ N(3.0,1.0)
# Observation noise range from 0.5 to 8.0 with step size 0.1

# Observation noise | mean | standard deviation

0.5 4970.484365672187 39.52718904059492
0.6 4968.85348063257 37.352260922484575
0.7 4961.692850200195 41.64454384467607
0.7999999999999999 4958.166090534562 34.45966032195678
0.8999999999999999 4954.509488368415 35.50321266166822
0.9999999999999999 4948.2168819492235 34.466326141109846
1.0999999999999999 4939.487474761015 34.59662288220504
1.1999999999999997 4932.725899475171 33.754107006173946
1.2999999999999996 4924.746778620211 33.51445924703755
1.3999999999999995 4917.3587932473765 34.678504554612786
1.4999999999999993 4908.722544443139 35.39322810479869
1.5999999999999992 4900.502063000327 34.884027848207644
1.699999999999999 4890.480648283231 36.633716042589164
1.799999999999999 4880.383263656233 36.84441573132948
1.8999999999999988 4870.748273438398 36.35964767679663
1.9999999999999987 4858.468807299698 37.018393932846315
2.0999999999999988 4848.393711650282 37.48305721177531
2.199999999999999 4839.261919068207 36.843701473234084
2.299999999999999 4830.78355314014 37.29446570351138
2.399999999999999 4816.272488727947 38.633355107477044
2.499999999999999 4807.548091128212 37.9028735615775
2.599999999999999 4792.982126108678 38.29207289329414
2.6999999999999993 4780.2619585026205 40.798605241383136
2.7999999999999994 4771.040188753252 38.157981468524376
2.8999999999999995 4759.860462047869 39.91459660140117
2.9999999999999996 4748.381487366245 39.5244702271358
3.0999999999999996 4735.049391729934 41.068805859547496
3.1999999999999997 4723.865124131982 42.12119689508768
3.3 4711.453364343892 41.70741001566012
3.4 4697.3594230816525 44.106318332736265
3.5 4688.062665522102 42.830526736314134
3.6 4672.851311358908 42.597609575220574
3.7 4660.690603580564 44.24069950487866
3.8000000000000003 4648.45931657457 44.3850392066821
3.9000000000000004 4637.4986278743645 44.78357616892265
4.0 4623.601940733218 46.944374110796105
4.1 4611.892652916339 45.46917594141303
4.199999999999999 4599.1792131038055 46.717478573985495
4.299999999999999 4583.0571823135915 47.28709606594975
4.399999999999999 4572.567430689035 47.767653371575825
4.499999999999998 4559.159681188239 49.238417065444786
4.599999999999998 4546.682756090253 48.36496305764371
4.6999999999999975 4532.785301989447 50.735429241882976
4.799999999999997 4519.585750326387 51.280627986150854
4.899999999999997 4505.925586405915 51.53934910650498
4.9999999999999964 4496.531102043823 53.31115925803488
5.099999999999996 4480.280376502209 51.725543157809525
5.199999999999996 4470.345005379162 52.38809091700867
5.299999999999995 4452.74179249482 51.594242241990706
5.399999999999995 4441.174561758271 53.79369542764082
5.499999999999995 4426.725900512034 54.21769795134514
5.599999999999994 4413.639718957118 55.54364159946083
5.699999999999994 4399.158995729743 55.43399497580478
5.799999999999994 4387.766533073072 54.94523602766929
5.899999999999993 4372.554529893991 55.898626517452826
5.999999999999993 4358.795817149419 56.72878046150553
6.0999999999999925 4350.391183971669 58.23482173458335
6.199999999999992 4334.445369167807 58.62988764677486
6.299999999999992 4323.173369610218 57.30254574164114
6.3999999999999915 4308.653331423101 60.96485734397552
6.499999999999991 4294.429353680721 60.418107875058425
6.599999999999991 4284.932117380582 58.18147262735806
6.69999999999999 4271.6781357825075 62.40702315269351
6.79999999999999 4261.257619071993 63.40790530556633
6.89999999999999 4243.36772673163 63.77470575589557
6.999999999999989 4231.450853825955 65.04895056995596
7.099999999999989 4220.521533857175 60.74450141816996
7.199999999999989 4209.351029680212 62.89109634903807
7.299999999999988 4193.467786987843 63.40316450122609
7.399999999999988 4178.746532678346 65.08836343610412
7.499999999999988 4171.611011471958 62.79788290845792
7.599999999999987 4155.199191841027 65.56001586165016
7.699999999999987 4144.490905713673 65.16898627240795
7.7999999999999865 4134.175639156534 65.43632353187454
7.899999999999986 4119.956118643612 64.98665489261603
7.999999999999986 4105.179742340912 67.04582623236887
