# Rounds: 5000, repetitions: 1000
# Good arm ~ N(5.0,2.0), 9 bad arm(s) ~ N(4.5,2.0)
# Observation noise range from 0.1 to 10.0 with step size 0.1

# Observation noise | mean | standard deviation

0.1 23512.804293756308 1216.176061587055
0.2 23700.906490743 1214.6389129788263
0.30000000000000004 23832.291574721457 1195.3787488438998
0.4000000000000001 23948.77436109736 1162.3352690413672
0.5000000000000001 24048.553778143465 1118.335556987333
0.6000000000000001 24161.42947678322 1072.3584904696597
0.7000000000000001 24303.934427013173 978.6988869665648
0.8 24356.274522174124 924.0818413943617
0.9 24408.862009422315 865.0781350681441
1.0 24493.853924199888 748.1416998611579
1.1 24524.525580628055 695.9374888762335
1.2000000000000002 24536.1689065092 624.9799519451952
1.3000000000000003 24582.790078235575 544.7629285740677
1.4000000000000004 24592.36296750027 476.45342428760694
1.5000000000000004 24597.423378935884 449.6746447314026
1.6000000000000005 24607.179240919668 338.31152337447594
1.7000000000000006 24576.55612249056 356.35463827007743
1.8000000000000007 24554.020967002394 307.45513740802903
1.9000000000000008 24558.353673960162 271.1866502369155
2.000000000000001 24506.942734762088 257.8678387643215
2.100000000000001 24498.844245601318 241.85155146436742
2.200000000000001 24477.75750304802 237.60133033109528
2.300000000000001 24433.04114701908 256.56472931993
2.4000000000000012 24403.713283356727 226.25180763044693
2.5000000000000013 24373.367050127184 242.6920428899347
2.6000000000000014 24342.51086938615 231.6724723885145
2.7000000000000015 24313.418358244293 220.95803998698418
2.8000000000000016 24283.098864850665 231.65836563745117
2.9000000000000017 24244.623283063564 248.16303380288943
3.0000000000000018 24212.624870580286 237.6450745025225
3.100000000000002 24205.411352966352 223.93987826908418
3.200000000000002 24155.966531151444 222.61569477184284
3.300000000000002 24121.15977553174 230.90817037456065
3.400000000000002 24102.434335846105 224.71328353601638
3.500000000000002 24072.876074480893 234.68645313730727
3.6000000000000023 24040.885464115745 232.57072401576622
3.7000000000000024 24017.37336755087 231.44729004654008
3.8000000000000025 23990.197968356373 229.96150853278706
3.9000000000000026 23964.622566790345 239.40450440465293
4.000000000000003 23927.546777626743 234.3659872462606
4.100000000000003 23894.97456749904 237.93356073685658
4.200000000000004 23874.319971304256 249.9387674667476
4.300000000000004 23856.465581002783 227.92949905530804
4.400000000000005 23829.54590776167 223.69746380341977
4.500000000000005 23815.692492667786 233.31241598714587
4.600000000000006 23784.933848390683 232.04875721137034
4.700000000000006 23751.708317041048 222.32560500163345
4.800000000000007 23750.02644462549 234.85772680399316
4.9000000000000075 23719.490594176856 235.76570782249246
5.000000000000008 23705.41230743976 221.01938331272055
5.1000000000000085 23672.71531762245 234.44153050592888
5.200000000000009 23652.002524187767 223.5695401534688
5.30000000000001 23621.80876841068 228.5236448712732
5.40000000000001 23621.77191386716 226.56593238149475
5.500000000000011 23605.00615495887 214.61356499118392
5.600000000000011 23583.681411124795 227.87829467908045
5.700000000000012 23556.92964085976 217.89565551534244
5.800000000000012 23546.363532913158 226.49808825031155
5.900000000000013 23531.27702610885 227.46503516086258
6.000000000000013 23511.73841002373 224.08964853698734
6.100000000000014 23508.999140100103 217.95272644525636
6.200000000000014 23466.7126819964 220.14934637503694
6.300000000000015 23464.770500379538 215.00846542677402
6.4000000000000155 23451.934952527256 214.58415480737978
6.500000000000016 23433.56235016457 209.65450848107648
6.6000000000000165 23410.390088425524 211.9058421859569
6.700000000000017 23420.256377889687 200.36102399898235
6.800000000000018 23402.123649459798 203.89026148713143
6.900000000000018 23380.909907118807 201.70146957921793
7.000000000000019 23376.233918578248 207.06422084122445
7.100000000000019 23378.83873257395 217.25751077623758
7.20000000000002 23341.310394566415 200.78713946719847
7.30000000000002 23339.36722353495 204.89842487427433
7.400000000000021 23328.661004998583 206.6697009664926
7.500000000000021 23314.051704283254 201.471538149853
7.600000000000022 23305.635675361373 198.2757113518867
7.700000000000022 23305.19727610656 203.70582160382554
7.800000000000023 23293.073808165267 195.81340513710865
7.9000000000000234 23280.60688972498 201.88883165763727
8.000000000000025 23274.84988252967 192.84354257050046
8.100000000000026 23262.600633619324 191.99533471243558
8.200000000000028 23260.18354677913 194.6671396619845
8.30000000000003 23237.249720553707 192.80140531911292
8.40000000000003 23235.19704940939 190.83079851301886
8.500000000000032 23237.010099645715 189.4575574108016
8.600000000000033 23220.739662085783 187.45259384366275
8.700000000000035 23222.505965377713 181.2234436760127
8.800000000000036 23209.833189030847 191.30866539233574
8.900000000000038 23205.24547253463 181.62323629207725
9.000000000000039 23191.253694923234 183.3776708408891
9.10000000000004 23192.57589837549 191.50859435034602
9.200000000000042 23193.064501198325 179.53578053414464
9.300000000000043 23183.778499912754 180.24767884319974
9.400000000000045 23167.0383591563 176.14601510686913
9.500000000000046 23156.450660907652 184.30119470368717
9.600000000000048 23170.194486972345 177.01351441990832
9.700000000000049 23160.241021286824 183.8480984905102
9.80000000000005 23151.273233462063 181.927661043674
9.900000000000052 23148.55826864751 181.9005713696517
10.000000000000053 23138.05035283702 181.06073327424195
