# Rounds: 5000, repetitions: 1000
# Good arm ~ N(5.0,1.0), 10 bad arm(s) ~ N(3.0,1.0)
# Observation noise range from 0.5 to 8.0 with step size 0.1

# Observation noise | mean | standard deviation

0.5 24969.376932988438 75.60354159643248
0.6 24963.31791609762 72.90628376772598
0.7 24958.12636870296 76.8839560296439
0.7999999999999999 24949.536518482466 72.28735121478658
0.8999999999999999 24941.96987426213 73.90095227134793
0.9999999999999999 24937.859478291277 70.6064303197066
1.0999999999999999 24922.59926600373 71.59495798117803
1.1999999999999997 24916.666781684235 73.08909016197109
1.2999999999999996 24899.84781734669 70.68487316634007
1.3999999999999995 24889.639510659785 75.48715330434636
1.4999999999999993 24880.163021662833 69.42914407564363
1.5999999999999992 24862.71312427988 74.47714229463013
1.699999999999999 24849.374529058994 73.41544837399705
1.799999999999999 24836.811441473772 74.98218891791544
1.8999999999999988 24819.11120853957 73.81186316310331
1.9999999999999987 24809.541607950447 75.92378902957779
2.0999999999999988 24789.47278908506 71.09377937584146
2.199999999999999 24773.321941632003 74.84851677009188
2.299999999999999 24760.261658944422 75.69645880810255
2.399999999999999 24739.97236399408 77.191066364107
2.499999999999999 24724.89679214667 73.95083317875358
2.599999999999999 24703.022897218805 76.68749500799323
2.6999999999999993 24684.07465540858 73.88889962878883
2.7999999999999994 24669.15878683967 75.28253437715557
2.8999999999999995 24649.617922241392 77.94101752130052
2.9999999999999996 24628.98707317178 75.80420750211901
3.0999999999999996 24612.878522139483 76.1334673460445
3.1999999999999997 24587.87077120414 79.23784226402361
3.3 24569.901871713435 78.41336567912226
3.4 24546.022215936027 77.05381496673682
3.5 24530.195732015985 78.54729396628383
3.6 24508.79657619548 78.28519117180394
3.7 24488.560209129744 78.15647343363702
3.8000000000000003 24466.128405221833 82.27116858247177
3.9000000000000004 24444.470736072064 81.21935251820862
4.0 24422.483494965636 79.79894369089264
4.1 24408.324199493967 79.45172178278149
4.199999999999999 24376.22405668285 80.47621098325243
4.299999999999999 24357.748426738595 76.71826567715051
4.399999999999999 24331.32393995139 79.191870947866
4.499999999999998 24306.204454051738 81.16857025683672
4.599999999999998 24285.415589618045 82.67048417237852
4.6999999999999975 24263.429989335847 82.39904887472017
4.799999999999997 24239.77367955577 83.91951129762538
4.899999999999997 24216.484458782314 79.7516635789236
4.9999999999999964 24197.953732211547 84.29209030784165
5.099999999999996 24166.5887098425 82.11347698316776
5.199999999999996 24144.240890608813 84.28792787578232
5.299999999999995 24116.00375381025 83.9147773362401
5.399999999999995 24096.257124725278 80.96406755528584
5.499999999999995 24068.721509810726 85.08364113849007
5.599999999999994 24043.322235146785 88.13712022931787
5.699999999999994 24017.374330901635 86.27912623988206
5.799999999999994 23994.68652549616 83.26405006841688
5.899999999999993 23963.64462595819 88.32902033187828
5.999999999999993 23944.15060227247 87.4900410559941
6.0999999999999925 23911.253119135265 88.32727314080338
6.199999999999992 23891.15975016837 89.21867216283758
6.299999999999992 23863.570296532063 84.2122948575039
6.3999999999999915 23839.39669489613 86.86104008775742
6.499999999999991 23809.70189926699 88.66203026066005
6.599999999999991 23784.942166327295 91.38533351516524
6.69999999999999 23755.35774444479 90.65622021884244
6.79999999999999 23733.594845310166 90.2416737255265
6.89999999999999 23703.699535113596 93.97273250325806
6.999999999999989 23676.4077692154 92.70941187644462
7.099999999999989 23653.490691310144 91.62408002827934
7.199999999999989 23623.95814749879 93.96168361571796
7.299999999999988 23597.235545072363 90.9724303459398
7.399999999999988 23569.049958346524 95.87749661133284
7.499999999999988 23543.310515294015 91.72583005601162
7.599999999999987 23515.005433765353 95.08472344186643
7.699999999999987 23486.960973231093 97.63840307804112
7.7999999999999865 23464.047997008656 94.76215288103444
7.899999999999986 23431.07093365571 93.2725774832756
7.999999999999986 23397.60446340547 102.08423268059511
