# Rounds: 5000, repetitions: 1000
# Good arm ~ N(5.0,1.0), 10 bad arm(s) ~ N(4.0,1.0)
# Observation noise range from 0.5 to 8.0 with step size 0.1

# Observation noise | mean | standard deviation

0.5 24919.600148833837 342.26768262479146
0.6 24930.097689501355 288.7559276786545
0.7 24929.505587456493 149.24064529639574
0.7999999999999999 24920.54113935974 93.84753113224856
0.8999999999999999 24910.02203840009 81.7464425239281
0.9999999999999999 24894.839399861634 75.66033715653053
1.0999999999999999 24879.722581489732 78.82388963219405
1.1999999999999997 24857.606114218488 78.94603405097777
1.2999999999999996 24843.7760290787 75.00030004081731
1.3999999999999995 24824.380898545132 74.10854944184953
1.4999999999999993 24801.078318890115 76.87190954975667
1.5999999999999992 24778.43214381634 76.35228842717274
1.699999999999999 24758.116409074773 75.06885265519644
1.799999999999999 24733.87799339764 76.4645671593328
1.8999999999999988 24712.337480983835 77.6770548833179
1.9999999999999987 24685.660789788348 79.42212599348704
2.0999999999999988 24663.107911762592 78.39019945178356
2.199999999999999 24635.022504052376 83.92702143958248
2.299999999999999 24610.508140828508 81.80605841894838
2.399999999999999 24588.75943614377 80.22657538229514
2.499999999999999 24555.384443222585 79.97352432379076
2.599999999999999 24529.68431662337 82.5518020974437
2.6999999999999993 24504.768478749655 82.3021258401593
2.7999999999999994 24480.085368925837 85.62183776874339
2.8999999999999995 24447.312974422126 86.60827369036299
2.9999999999999996 24421.060869666988 86.99521463373294
3.0999999999999996 24395.953264043015 84.01211916645478
3.1999999999999997 24361.182139759043 87.52058873807673
3.3 24331.902042382575 87.05138900750111
3.4 24304.862636844533 86.71100411735296
3.5 24271.22742061013 90.12892783546992
3.6 24245.092588431675 91.59833942731689
3.7 24216.353810063923 87.23197158469489
3.8000000000000003 24188.87289774861 91.77633014843636
3.9000000000000004 24154.733596343947 92.49043566463685
4.0 24127.995289034305 96.15403262129361
4.1 24095.649942776072 95.2067380000135
4.199999999999999 24062.917769937212 98.47134138984264
4.299999999999999 24030.194753191725 92.79855272649351
4.399999999999999 23997.53335650724 95.08717672520557
4.499999999999998 23972.841900052365 98.39152136764078
4.599999999999998 23938.94435917679 95.51962823616778
4.6999999999999975 23905.49227746053 95.70071916358705
4.799999999999997 23878.000782377374 99.03314103553187
4.899999999999997 23847.397097133646 97.6295701470961
4.9999999999999964 23817.218627912043 99.53283443891259
5.099999999999996 23782.833002122134 98.43342870466792
5.199999999999996 23757.18100634581 101.17145510941769
5.299999999999995 23726.154401528347 106.42307106054231
5.399999999999995 23697.42551523158 104.35924131374414
5.499999999999995 23657.576161793295 105.89495908009621
5.599999999999994 23635.171452271694 103.73356352801535
5.699999999999994 23611.72750218362 105.66005167656719
5.799999999999994 23566.944963152455 107.49128124529886
5.899999999999993 23540.782517691776 104.50158805367276
5.999999999999993 23513.396094612144 111.26055358754898
6.0999999999999925 23481.343561291367 107.4299171934932
6.199999999999992 23454.29218288644 109.45242111361068
6.299999999999992 23425.83299440837 107.15524699241199
6.3999999999999915 23395.25770923056 110.90311177877598
6.499999999999991 23360.94729749167 113.22724765248535
6.599999999999991 23340.576393232684 109.54170713834301
6.69999999999999 23304.75046431295 114.57030801518356
6.79999999999999 23270.774232635322 114.49818174499418
6.89999999999999 23250.566849816256 112.62387718045969
6.999999999999989 23221.421655895083 117.79251813262081
7.099999999999989 23188.240908026404 113.89542769165786
7.199999999999989 23161.012982872282 116.66955497160991
7.299999999999988 23131.601450499 115.88531378292679
7.399999999999988 23103.16157075598 119.36213768288802
7.499999999999988 23079.831852404794 117.83637378483698
7.599999999999987 23057.695873232813 115.67064495482919
7.699999999999987 23024.825726831004 117.35934416497075
7.7999999999999865 22998.24926694878 124.53429253508119
7.899999999999986 22978.56554863773 114.61307226411411
7.999999999999986 22940.642756925197 119.69895077456248
