# Rounds: 100, repetitions: 1000
# Good arm ~ N(5.0,0.0), 19 bad arm(s) ~ N(4.5,0.0)
# Observation noise range from 0.5 to 8.0 with step size 0.1

# Observation noise | mean | standard deviation

0.5 470.8640000000006 2.8482655453129073
0.6 467.34050000000013 2.664471647280026
0.7 464.68799999999993 2.575517285767907
0.7999999999999999 463.29950000000025 2.2933183510056057
0.8999999999999999 462.3749999999997 2.133524531597174
0.9999999999999999 461.33099999999996 2.2103901974142057
1.0999999999999999 460.87199999999973 2.0761566478535345
1.1999999999999997 460.5054999999998 2.0072989311507596
1.2999999999999996 460.1454999999994 1.9917446615459424
1.3999999999999995 459.8944999999997 2.09308402859291
1.4999999999999993 459.6855000000001 2.0217386520460985
1.5999999999999992 459.30949999999984 2.0475967382281173
1.699999999999999 459.1035000000003 1.94957395053088
1.799999999999999 458.94599999999986 1.9750911333366283
1.8999999999999988 458.91249999999997 2.034633501022598
1.9999999999999987 458.7549999999998 1.9642640691448097
2.0999999999999988 458.62599999999964 2.0597005525965058
2.199999999999999 458.44899999999967 1.9660275339537543
2.299999999999999 458.4294999999997 1.9809603615302285
2.399999999999999 458.38649999999984 1.9616870203898336
2.499999999999999 458.2334999999998 1.886739923131321
2.599999999999999 458.0529999999996 1.8871280434173712
2.6999999999999993 458.0885000000005 1.8947315793425161
2.7999999999999994 458.13300000000015 1.8671629005786594
2.8999999999999995 457.994 1.8960640967696847
2.9999999999999996 457.88799999999947 1.8194137149824667
3.0999999999999996 457.8130000000001 1.8261615114402763
3.1999999999999997 457.9135 1.9408850519247112
3.3 457.7885000000001 1.7162351858685303
3.4 457.8755 1.74608091122621
3.5 457.7235000000005 1.8473522837998482
3.6 457.67749999999995 1.783514697072796
3.7 457.60100000000017 1.7041722926990672
3.8000000000000003 457.6225000000001 1.7439280475509968
3.9000000000000004 457.54899999999986 1.6999967614642697
4.0 457.5695000000001 1.7075817946984535
4.1 457.5654999999998 1.6660538663217017
4.199999999999999 457.5279999999999 1.7215341064526386
4.299999999999999 457.498 1.6319188580193495
4.399999999999999 457.3704999999997 1.667561246404612
4.499999999999998 457.37400000000014 1.6417427689255497
4.599999999999998 457.3979999999998 1.5947222764917843
4.6999999999999975 457.3579999999995 1.5829851047441585
4.799999999999997 457.4440000000006 1.4915054772238034
4.899999999999997 457.3220000000004 1.578863138086642
4.9999999999999964 457.2884999999999 1.5681124726009827
5.099999999999996 457.3074999999997 1.5280800956686749
5.199999999999996 457.2930000000002 1.5419236454923797
5.299999999999995 457.2835000000005 1.4913422986866067
5.399999999999995 457.2984999999997 1.4600614814210766
5.499999999999995 457.22699999999946 1.4875092213776973
5.599999999999994 457.20000000000016 1.4379038798082269
5.699999999999994 457.2395000000002 1.462712985954273
5.799999999999994 457.09449999999987 1.4575473214253412
5.899999999999993 457.2179999999996 1.4940576321575432
5.999999999999993 457.2230000000006 1.4771435112923037
6.0999999999999925 457.1404999999999 1.3829035295971144
6.199999999999992 457.1864999999999 1.3615511637729834
6.299999999999992 457.27199999999976 1.4700942749283685
6.3999999999999915 457.04550000000035 1.383688673200862
6.499999999999991 457.13849999999945 1.4174190724083002
6.599999999999991 457.0685000000001 1.3326040610712617
6.69999999999999 457.08449999999976 1.360316216991546
6.79999999999999 457.13550000000026 1.3855719250762721
6.89999999999999 457.1130000000001 1.3412792513231653
6.999999999999989 457.1809999999999 1.3866007578469226
7.099999999999989 457.1310000000006 1.3268758795002569
7.199999999999989 457.0514999999999 1.3127532407391298
7.299999999999988 457.0560000000004 1.3435658410249915
7.399999999999988 457.0840000000003 1.2901971200590394
7.499999999999988 457.10799999999995 1.3662732899031063
7.599999999999987 457.0264999999996 1.3333512573870312
7.699999999999987 457.07249999999954 1.351414100144769
7.7999999999999865 457.1385000000003 1.3205345741636383
7.899999999999986 457.0210000000005 1.2939216487999614
7.999999999999986 457.11349999999976 1.326886724019187
